spectrometer_dunkelfeld_100nm_einzel_at_650.00nm_cut_at_1436.50Y_02.dat
02.05.2022
13:37:49
cut middle at Y: 1436.50
top cursor: 1494 down cursor: 1379 mean of: 115 lines , 2560 datapoints
wavelength(nm)	intensity[arb. units]
485.997	560.478
486.125	520.383
486.253	517.322
486.381	516.130
486.510	516.922
486.638	528.548
486.766	527.322
486.894	528.052
487.022	530.122
487.150	549.009
487.278	536.704
487.406	539.626
487.535	544.026
487.663	543.026
487.791	540.400
487.919	547.913
488.047	554.678
488.175	550.409
488.303	551.896
488.431	555.643
488.560	573.417
488.688	570.870
488.816	574.209
488.944	575.174
489.072	582.539
489.200	579.548
489.328	582.470
489.456	583.226
489.585	592.670
489.713	586.530
489.841	591.139
489.969	597.261
490.097	594.400
490.225	595.165
490.353	610.330
490.481	612.200
490.610	616.591
490.738	615.983
490.866	608.896
490.994	616.304
491.122	622.409
491.250	622.835
491.378	629.774
491.506	632.017
491.635	625.139
491.763	633.139
491.891	640.157
492.019	652.948
492.147	640.235
492.275	642.765
492.403	643.313
492.531	658.939
492.660	656.400
492.788	658.330
492.916	656.174
493.044	664.939
493.172	673.696
493.300	667.965
493.428	674.957
493.556	678.200
493.685	684.678
493.813	689.948
493.941	688.548
494.069	696.261
494.197	699.617
494.325	702.843
494.453	711.965
494.581	704.130
494.710	709.400
494.838	712.391
494.966	720.617
495.094	713.296
495.222	719.452
495.350	726.070
495.478	739.930
495.606	740.774
495.735	736.896
495.863	741.435
495.991	744.504
496.119	742.374
496.247	751.209
496.375	736.383
496.503	756.609
496.631	773.930
496.760	753.617
496.888	758.096
497.016	762.887
497.144	770.913
497.272	761.470
497.400	766.904
497.528	772.278
497.656	764.852
497.785	762.470
497.913	779.252
498.041	778.730
498.169	784.591
498.297	780.617
498.425	781.974
498.553	794.704
498.681	790.435
498.810	798.965
498.938	787.043
499.066	803.035
499.194	799.496
499.322	801.878
499.450	798.313
499.578	803.791
499.706	810.200
499.835	829.817
499.963	815.913
500.091	819.435
500.219	829.365
500.347	826.600
500.475	839.539
500.603	836.174
500.731	845.435
500.860	845.122
500.988	850.617
501.116	854.313
501.244	862.626
501.372	869.878
501.500	864.191
501.628	865.652
501.756	874.817
501.885	883.070
502.013	883.426
502.141	881.348
502.269	891.548
502.397	885.261
502.525	887.635
502.653	901.357
502.781	898.435
502.910	906.217
503.038	920.365
503.166	907.574
503.294	909.809
503.422	915.643
503.550	920.487
503.678	920.765
503.806	926.270
503.935	924.009
504.063	936.626
504.191	930.217
504.319	948.974
504.447	932.113
504.575	933.783
504.703	944.070
504.831	948.304
504.960	949.000
505.088	946.609
505.216	952.200
505.344	952.904
505.472	948.296
505.600	969.122
505.728	968.870
505.856	970.557
505.985	964.783
506.113	984.826
506.241	989.948
506.369	993.487
506.497	983.826
506.625	1002.652
506.753	996.157
506.881	1005.217
507.010	1020.678
507.138	1016.626
507.266	1028.809
507.394	1030.348
507.522	1033.774
507.650	1047.843
507.778	1051.539
507.906	1052.748
508.035	1056.209
508.163	1073.626
508.291	1075.287
508.419	1086.817
508.547	1079.287
508.675	1100.409
508.803	1094.496
508.931	1098.887
509.060	1099.870
509.188	1113.913
509.316	1108.817
509.444	1114.391
509.572	1122.722
509.700	1127.357
509.828	1140.243
509.956	1145.687
510.085	1129.470
510.213	1130.539
510.341	1141.678
510.469	1160.574
510.597	1157.948
510.725	1149.417
510.853	1171.400
510.981	1168.861
511.110	1171.809
511.238	1183.730
511.366	1168.522
511.494	1164.522
511.622	1179.461
511.750	1176.270
511.878	1194.096
512.006	1194.200
512.135	1198.991
512.263	1221.400
512.391	1209.043
512.519	1215.278
512.647	1220.704
512.775	1231.400
512.903	1226.878
513.031	1228.591
513.160	1229.417
513.288	1243.696
513.416	1246.974
513.544	1233.817
513.672	1234.600
513.800	1241.070
513.928	1254.148
514.056	1255.348
514.185	1253.226
514.313	1251.739
514.441	1246.557
514.569	1252.261
514.697	1273.417
514.825	1285.400
514.953	1267.191
515.081	1266.330
515.210	1268.765
515.338	1285.270
515.466	1270.722
515.594	1285.009
515.722	1274.522
515.850	1283.078
515.978	1294.730
516.106	1289.609
516.235	1300.391
516.363	1306.113
516.491	1310.461
516.619	1315.922
516.747	1315.930
516.875	1314.713
517.003	1323.304
517.131	1325.443
517.260	1323.530
517.388	1330.739
517.516	1338.661
517.644	1350.000
517.772	1369.565
517.900	1365.548
518.028	1361.704
518.156	1380.391
518.284	1386.452
518.413	1386.000
518.541	1396.791
518.669	1398.983
518.797	1401.504
518.925	1410.435
519.053	1419.443
519.181	1423.330
519.309	1436.226
519.438	1447.035
519.566	1434.626
519.694	1448.609
519.822	1461.452
519.950	1474.930
520.078	1463.304
520.206	1470.313
520.334	1480.965
520.463	1499.035
520.591	1493.504
520.719	1516.878
520.847	1499.261
520.975	1515.643
521.103	1516.035
521.231	1517.800
521.359	1524.113
521.488	1522.539
521.616	1530.574
521.744	1531.043
521.872	1538.026
522.000	1522.583
522.128	1552.661
522.256	1551.887
522.384	1560.165
522.513	1563.687
522.641	1560.730
522.769	1571.791
522.897	1566.157
523.025	1590.548
523.153	1579.913
523.281	1585.817
523.409	1583.209
523.538	1590.687
523.666	1595.148
523.794	1605.948
523.922	1598.400
524.050	1622.096
524.178	1619.209
524.306	1609.148
524.434	1616.426
524.563	1630.139
524.691	1657.470
524.819	1644.539
524.947	1658.713
525.075	1651.565
525.203	1673.730
525.331	1671.852
525.459	1689.374
525.588	1683.217
525.716	1697.365
525.844	1715.809
525.972	1706.104
526.100	1726.409
526.228	1740.600
526.356	1740.470
526.484	1751.296
526.613	1762.974
526.741	1761.826
526.869	1779.452
526.997	1781.609
527.125	1785.443
527.253	1788.696
527.381	1814.270
527.509	1799.661
527.638	1821.174
527.766	1835.157
527.894	1843.452
528.022	1862.930
528.150	1834.696
528.278	1859.652
528.406	1867.226
528.534	1865.296
528.663	1878.348
528.791	1912.435
528.919	1901.887
529.047	1953.617
529.175	1876.922
529.303	1904.530
529.431	1898.261
529.559	1922.843
529.688	1901.983
529.816	1924.226
529.944	1976.765
530.072	1933.504
530.200	1918.809
530.328	1943.704
530.456	1960.191
530.584	1929.722
530.713	1964.522
530.841	1978.817
530.969	1958.130
531.097	1968.974
531.225	1990.452
531.353	2039.130
531.481	2001.461
531.609	2091.600
531.738	1990.009
531.866	2060.096
531.994	2062.930
532.122	2112.730
532.250	2065.774
532.378	2044.304
532.506	2035.183
532.634	2040.939
532.763	2027.991
532.891	2058.843
533.019	2071.704
533.147	2061.391
533.275	2063.574
533.403	2121.017
533.531	2096.539
533.659	2105.783
533.788	2095.139
533.916	2092.870
534.044	2132.983
534.172	2146.800
534.300	2147.087
534.428	2150.139
534.556	2279.409
534.684	2167.826
534.813	2170.826
534.941	2164.252
535.069	2189.357
535.197	2194.774
535.325	2191.122
535.453	2220.409
535.581	2276.104
535.709	2214.122
535.838	2240.096
535.966	2248.835
536.094	2258.148
536.222	2285.878
536.350	2253.157
536.478	2267.748
536.606	2282.096
536.734	2264.078
536.863	2281.600
536.991	2312.835
537.119	2306.496
537.247	2287.626
537.375	2408.861
537.503	2300.061
537.631	2329.157
537.759	2339.191
537.888	2321.278
538.016	2449.383
538.144	2390.774
538.272	2365.843
538.400	2399.574
538.528	2372.417
538.656	2393.217
538.784	2396.713
538.913	2465.774
539.041	2440.757
539.169	2432.139
539.297	2436.991
539.425	2508.983
539.553	2461.243
539.681	2512.313
539.809	2494.078
539.938	2487.000
540.066	2476.417
540.194	2498.148
540.322	2559.113
540.450	2571.209
540.578	2517.443
540.706	2543.026
540.834	2566.348
540.963	2604.835
541.091	2549.791
541.219	2566.696
541.347	2609.304
541.475	2598.504
541.603	2591.357
541.731	2586.496
541.859	2601.600
541.988	2600.070
542.116	2741.722
542.244	2629.348
542.372	2743.087
542.500	2646.817
542.628	2692.739
542.756	2655.870
542.884	2675.739
543.013	2676.835
543.141	2710.878
543.269	2700.843
543.397	2664.200
543.525	2701.704
543.653	2770.017
543.781	2699.643
543.909	2696.696
544.038	2759.991
544.166	2763.122
544.294	2831.600
544.422	2707.174
544.550	2753.809
544.678	2772.383
544.806	2740.861
544.934	2725.470
545.063	2790.130
545.191	2847.339
545.319	2771.800
545.447	2729.791
545.575	2757.643
545.703	2790.139
545.831	2805.017
545.959	2768.165
546.088	2761.609
546.216	2770.417
546.344	2777.548
546.472	2918.443
546.600	2822.287
546.728	2816.652
546.856	2831.191
546.984	2831.374
547.113	2889.383
547.241	2856.591
547.369	2910.513
547.497	2885.817
547.625	2903.600
547.753	2917.843
547.881	2909.400
548.009	2925.139
548.138	2963.035
548.266	2954.696
548.394	3039.687
548.522	2986.478
548.650	3077.383
548.778	3056.122
548.906	3011.417
549.034	3091.417
549.163	3057.922
549.291	3032.878
549.419	3065.696
549.547	3175.183
549.675	3091.104
549.803	3090.730
549.931	3109.583
550.059	3106.522
550.188	3152.148
550.316	3150.296
550.444	3181.061
550.572	3182.261
550.700	3167.365
550.828	3194.461
550.956	3190.696
551.084	3248.557
551.213	3217.957
551.341	3268.800
551.469	3268.183
551.597	3309.957
551.725	3308.409
551.853	3302.774
551.981	3321.852
552.109	3330.965
552.238	3360.070
552.366	3340.826
552.494	3366.583
552.622	3362.252
552.750	3368.739
552.878	3397.478
553.006	3415.383
553.134	3398.270
553.263	3392.235
553.391	3425.104
553.519	3524.974
553.647	3452.017
553.775	3452.748
553.903	3517.826
554.031	3483.713
554.159	3444.722
554.288	3479.826
554.416	3477.043
554.544	3512.652
554.672	3491.400
554.800	3493.043
554.928	3503.965
555.056	3504.391
555.184	3546.635
555.313	3526.426
555.441	3497.391
555.569	3522.270
555.697	3577.817
555.825	3555.626
555.953	3564.478
556.081	3550.304
556.209	3584.470
556.338	3579.096
556.466	3684.530
556.594	3583.696
556.722	3641.843
556.850	3685.409
556.978	3571.217
557.106	3626.504
557.234	3634.687
557.363	3680.200
557.491	3662.774
557.619	3673.739
557.747	3688.696
557.875	3656.661
558.003	3671.130
558.131	3681.096
558.259	3701.557
558.388	3675.078
558.516	3686.852
558.644	3704.330
558.772	3771.939
558.900	3725.652
559.028	3736.800
559.156	3767.713
559.284	3745.991
559.413	3774.513
559.541	3763.113
559.669	3815.583
559.797	3860.096
559.925	3824.765
560.053	3878.539
560.181	3834.739
560.309	3874.670
560.438	3877.696
560.566	3902.887
560.694	3863.322
560.822	4018.817
560.950	3908.104
561.078	3929.991
561.206	4042.983
561.334	3946.670
561.463	3928.626
561.591	4037.757
561.719	3960.722
561.847	4019.974
561.975	3987.791
562.103	4020.426
562.231	4071.826
562.359	3995.791
562.488	4061.791
562.616	4064.922
562.744	4092.287
562.872	4087.043
563.000	4072.591
563.128	4087.635
563.256	4121.922
563.384	4219.139
563.513	4107.391
563.641	4173.817
563.769	4208.983
563.897	4163.026
564.025	4202.983
564.153	4196.826
564.281	4259.235
564.409	4235.696
564.538	4225.626
564.666	4262.800
564.794	4275.765
564.922	4253.913
565.050	4330.174
565.178	4281.174
565.306	4313.470
565.434	4337.478
565.563	4449.835
565.691	4383.600
565.819	4494.722
565.947	4372.609
566.075	4396.548
566.203	4420.496
566.331	4395.183
566.459	4400.965
566.588	4406.496
566.716	4467.670
566.844	4462.009
566.972	4481.348
567.100	4539.643
567.228	4584.930
567.356	4604.000
567.484	4542.835
567.613	4597.557
567.741	4618.000
567.869	4578.157
567.997	4608.965
568.125	4667.626
568.253	4715.930
568.381	4649.765
568.509	4710.870
568.638	4683.730
568.766	4758.096
568.894	4781.078
569.022	4724.304
569.150	4819.896
569.278	4753.478
569.406	4875.104
569.534	4850.522
569.663	4816.252
569.791	4812.383
569.919	4879.722
570.047	4990.626
570.175	4869.330
570.303	4872.870
570.431	4894.478
570.559	4946.583
570.688	5057.157
570.816	4934.617
570.944	4987.530
571.072	4956.522
571.200	4942.470
571.328	4979.626
571.456	4986.530
571.584	4981.861
571.713	5003.426
571.841	5054.391
571.969	5156.417
572.097	5163.165
572.225	5029.591
572.353	5044.600
572.481	5041.226
572.609	5109.061
572.738	5096.704
572.866	5073.174
572.994	5092.817
573.122	5104.957
573.250	5137.600
573.378	5095.635
573.506	5104.809
573.634	5153.417
573.763	5138.843
573.891	5168.774
574.019	5183.313
574.147	5163.035
574.275	5186.626
574.403	5263.400
574.531	5204.948
574.659	5230.922
574.788	5217.296
574.916	5370.052
575.044	5269.809
575.172	5322.878
575.300	5267.400
575.428	5302.296
575.556	5334.817
575.684	5362.652
575.813	5383.261
575.941	5378.617
576.069	5398.948
576.197	5481.348
576.325	5402.226
576.453	5448.122
576.581	5461.157
576.709	5479.800
576.838	5499.104
576.966	5615.643
577.094	5651.443
577.222	5617.443
577.350	5604.417
577.478	5683.183
577.606	5667.661
577.734	5714.374
577.863	5719.757
577.991	5755.904
578.119	5820.200
578.247	5794.504
578.375	5867.009
578.503	5843.843
578.631	5825.165
578.759	5876.817
578.888	6030.139
579.016	5897.122
579.144	5925.922
579.272	5944.270
579.400	5975.009
579.528	6036.478
579.656	6127.670
579.784	6057.774
579.913	6067.061
580.041	6268.843
580.169	6179.548
580.297	6204.591
580.425	6201.487
580.553	6234.791
580.681	6243.852
580.809	6257.339
580.938	6286.983
581.066	6373.278
581.194	6363.843
581.322	6353.548
581.450	6427.522
581.578	6445.939
581.706	6438.417
581.834	6491.139
581.963	6511.191
582.091	6523.070
582.219	6567.374
582.347	6614.600
582.475	6616.635
582.603	6633.957
582.731	6698.348
582.859	6649.026
582.988	6711.070
583.116	6737.983
583.244	6733.670
583.372	6766.191
583.500	6763.243
583.628	6836.278
583.756	6817.487
583.884	6846.478
584.013	6897.417
584.141	6877.696
584.269	6926.078
584.397	6960.096
584.525	6942.878
584.653	6981.122
584.781	7019.078
584.909	7028.365
585.038	7052.226
585.166	7050.217
585.294	7151.365
585.422	7112.722
585.550	7129.226
585.678	7104.548
585.806	7181.574
585.934	7155.878
586.063	7193.330
586.191	7170.678
586.319	7224.730
586.447	7200.235
586.575	7227.783
586.703	7302.226
586.831	7249.148
586.959	7312.287
587.088	7280.348
587.216	7339.339
587.344	7327.496
587.472	7471.835
587.600	7361.600
587.728	7353.191
587.856	7364.365
587.984	7373.122
588.113	7448.322
588.241	7426.052
588.369	7457.348
588.497	7455.878
588.625	7442.617
588.753	7590.748
588.881	7502.287
589.009	7526.922
589.138	7559.696
589.266	7557.052
589.394	7593.157
589.522	7612.287
589.650	7723.513
589.778	7681.739
589.906	7751.617
590.034	7667.426
590.163	7705.748
590.291	7737.826
590.419	7747.574
590.547	7779.348
590.675	7798.722
590.803	7830.957
590.931	7828.122
591.059	7849.600
591.188	7824.652
591.316	7795.261
591.444	7791.774
591.572	7826.722
591.700	7805.757
591.828	7798.026
591.956	7808.678
592.084	7832.191
592.213	7857.426
592.341	7912.843
592.469	7960.696
592.597	7975.357
592.725	7969.200
592.853	8045.530
592.981	8099.957
593.109	8142.043
593.238	8111.000
593.366	8147.557
593.494	8183.800
593.622	8287.583
593.750	8268.878
593.878	8349.148
594.006	8330.591
594.134	8338.165
594.263	8411.843
594.391	8333.035
594.519	8415.443
594.647	8428.226
594.775	8388.574
594.903	8414.417
595.031	8463.113
595.159	8436.922
595.288	8488.730
595.416	8489.357
595.544	8556.809
595.672	8516.278
595.800	8644.304
595.928	8615.757
596.056	8642.800
596.184	8628.243
596.313	8820.574
596.441	8710.974
596.569	8757.261
596.697	8738.287
596.825	8770.052
596.953	8820.217
597.081	8867.713
597.209	8868.383
597.338	8913.409
597.466	8937.983
597.594	8958.417
597.722	9132.243
597.850	9047.435
597.978	9126.904
598.106	9197.052
598.234	9223.078
598.363	9182.087
598.491	9334.348
598.619	9289.922
598.747	9308.113
598.875	9444.426
599.003	9444.609
599.131	9500.426
599.259	9527.374
599.388	9498.261
599.516	9591.809
599.644	9663.017
599.772	9744.165
599.900	9705.391
600.028	9730.913
600.156	9869.217
600.284	9822.809
600.413	9892.591
600.541	9979.591
600.669	10040.548
600.797	10010.565
600.925	10066.913
601.053	10131.843
601.181	10183.530
601.309	10162.687
601.438	10198.896
601.566	10253.070
601.694	10344.774
601.822	10532.774
601.950	10374.896
602.078	10447.583
602.206	10545.330
602.334	10532.017
602.463	10537.261
602.591	10663.209
602.719	10628.591
602.847	10819.687
602.975	10699.261
603.103	10740.374
603.231	10769.087
603.359	10828.643
603.488	10820.191
603.616	10862.374
603.744	10907.530
603.872	10893.878
604.000	10952.061
604.128	10977.496
604.256	10988.287
604.384	11051.017
604.513	11129.504
604.641	11150.696
604.769	11209.713
604.897	11143.896
605.025	11147.157
605.153	11220.348
605.281	11302.626
605.409	11291.974
605.538	11309.583
605.666	11364.104
605.794	11403.009
605.922	11412.183
606.050	11448.939
606.178	11553.243
606.306	11526.817
606.434	11584.365
606.563	11605.313
606.691	11646.278
606.819	11677.183
606.947	11658.957
607.075	11669.565
607.203	11673.435
607.331	11731.400
607.459	11780.087
607.588	11809.113
607.716	11854.922
607.844	11895.061
607.972	11958.739
608.100	11861.800
608.228	11915.870
608.356	11937.113
608.484	11994.078
608.613	12074.383
608.741	12092.417
608.869	12134.739
608.997	12208.722
609.125	12204.991
609.253	12197.896
609.381	12243.052
609.509	12256.522
609.638	12329.904
609.766	12330.426
609.894	12386.809
610.022	12414.861
610.150	12524.861
610.278	12455.157
610.406	12502.261
610.534	12512.391
610.663	12543.930
610.791	12682.200
610.919	12592.652
611.047	12684.643
611.175	12677.383
611.303	12778.270
611.431	12799.913
611.559	12908.791
611.688	12871.635
611.816	12899.148
611.944	12939.678
612.072	12982.887
612.200	13088.730
612.328	13163.991
612.456	13116.565
612.584	13322.878
612.713	13218.965
612.841	13336.983
612.969	13297.965
613.097	13345.609
613.225	13431.122
613.353	13433.409
613.481	13494.661
613.609	13573.200
613.738	13599.496
613.866	13711.330
613.994	13768.678
614.122	13826.365
614.250	13811.974
614.378	13884.096
614.506	13944.687
614.634	14000.383
614.763	14105.896
614.891	14164.348
615.019	14212.652
615.147	14318.235
615.275	14292.278
615.403	14361.922
615.531	14387.817
615.659	14508.096
615.788	14535.287
615.916	14674.704
616.044	14656.748
616.172	14872.087
616.300	14810.043
616.428	14932.017
616.556	14926.200
616.684	15013.157
616.813	15058.904
616.941	15095.000
617.069	15150.235
617.197	15421.670
617.325	15356.983
617.453	15437.183
617.581	15463.252
617.709	15508.609
617.838	15600.000
617.966	15683.391
618.094	15737.565
618.222	15826.591
618.350	15923.322
618.478	15926.817
618.606	16053.843
618.734	16022.391
618.863	16133.957
618.991	16087.348
619.119	16192.087
619.247	16250.443
619.375	16331.626
619.503	16448.130
619.631	16572.461
619.759	16522.591
619.888	16594.339
620.016	16691.330
620.144	16763.626
620.272	16768.670
620.400	16923.461
620.528	16933.443
620.656	17100.843
620.784	17118.383
620.913	17175.400
621.041	17285.348
621.169	17333.957
621.297	17359.530
621.425	17402.887
621.553	17495.235
621.681	17562.339
621.809	17630.017
621.938	17733.983
622.066	17829.870
622.194	17831.113
622.322	17945.191
622.450	17977.383
622.578	18032.670
622.706	18007.870
622.834	18076.504
622.963	18148.026
623.091	18117.157
623.219	18188.983
623.347	18307.209
623.475	18314.383
623.603	18333.757
623.731	18474.052
623.859	18511.957
623.988	18603.791
624.116	18620.470
624.244	18690.922
624.372	18763.757
624.500	18821.113
624.628	18851.530
624.756	18876.678
624.884	19030.661
625.013	19212.261
625.141	19151.904
625.269	19161.191
625.397	19315.930
625.525	19439.765
625.653	19384.330
625.781	19515.670
625.909	19481.165
626.038	19507.504
626.166	19587.583
626.294	19610.904
626.422	19716.365
626.550	19797.200
626.678	19813.461
626.806	19876.017
626.934	19900.557
627.063	19911.635
627.191	19979.887
627.319	20023.043
627.447	20101.887
627.575	20100.304
627.703	20208.791
627.831	20295.626
627.959	20322.400
628.088	20454.096
628.216	20530.774
628.344	20486.052
628.472	20535.765
628.600	20666.035
628.728	20570.522
628.856	20595.296
628.984	20693.487
629.113	20771.113
629.241	20798.800
629.369	20799.383
629.497	20927.704
629.625	20900.052
629.753	20903.965
629.881	20966.296
630.009	21011.696
630.138	21088.878
630.266	21122.843
630.394	21334.974
630.522	21310.896
630.650	21165.130
630.778	21135.270
630.906	21076.157
631.034	21089.374
631.163	21219.026
631.291	21242.304
631.419	21214.043
631.547	21275.591
631.675	21303.783
631.803	21329.652
631.931	21468.174
632.059	21528.539
632.188	21477.878
632.316	21533.278
632.444	21630.383
632.572	21643.974
632.700	21675.200
632.828	21751.913
632.956	21781.096
633.084	21810.583
633.213	21870.878
633.341	21785.843
633.469	21819.017
633.597	21852.026
633.725	21900.026
633.853	21964.583
633.981	22075.104
634.109	22242.365
634.238	22161.887
634.366	22210.687
634.494	22236.591
634.622	22279.643
634.750	22337.217
634.878	22408.678
635.006	22415.270
635.134	22372.670
635.263	22543.383
635.391	22552.722
635.519	22628.530
635.647	22701.052
635.775	22719.243
635.903	22865.678
636.031	22849.278
636.159	22917.452
636.288	22995.183
636.416	23115.148
636.544	23116.443
636.672	23160.235
636.800	23251.696
636.928	23276.165
637.056	23469.104
637.184	23428.435
637.313	23474.800
637.441	23557.235
637.569	23688.435
637.697	23751.991
637.825	23763.052
637.953	23910.783
638.081	23935.826
638.209	24098.591
638.338	24124.722
638.466	24258.957
638.594	24256.504
638.722	24344.661
638.850	24486.235
638.978	24465.574
639.106	24527.904
639.234	24587.174
639.363	24703.609
639.491	24748.191
639.619	24850.148
639.747	24935.191
639.875	24968.052
640.003	25137.191
640.131	25256.226
640.259	25248.661
640.388	25351.574
640.516	25370.365
640.644	25437.183
640.772	25579.391
640.900	25519.243
641.028	25554.348
641.156	25593.765
641.284	25690.487
641.413	25854.026
641.541	25866.139
641.669	25890.365
641.797	26059.243
641.925	26129.783
642.053	26252.574
642.181	26264.852
642.309	26281.626
642.438	26430.365
642.566	26438.026
642.694	26566.965
642.822	26527.426
642.950	26603.765
643.078	26738.930
643.206	26631.096
643.334	26787.052
643.463	26812.000
643.591	26831.461
643.719	26945.957
643.847	26962.713
643.975	27046.243
644.103	27084.870
644.231	27132.357
644.359	27155.530
644.488	27247.991
644.616	27242.948
644.744	27189.565
644.872	27164.313
645.000	27293.565
645.128	27272.757
645.256	27361.739
645.384	27374.009
645.513	27431.817
645.641	27508.348
645.769	27539.235
645.897	27598.157
646.025	27609.513
646.153	27572.339
646.281	27736.113
646.409	27646.817
646.538	27856.183
646.666	27722.991
646.794	27722.270
646.922	27749.348
647.050	27778.730
647.178	27792.704
647.306	28016.400
647.434	27737.826
647.563	27810.087
647.691	27830.852
647.819	27868.739
647.947	27827.757
648.075	27851.052
648.203	27887.270
648.331	27925.313
648.459	27978.783
648.588	27941.443
648.716	28096.157
648.844	28032.078
648.972	27992.157
649.100	28049.304
649.228	28112.374
649.356	28104.096
649.484	28080.209
649.613	28131.313
649.741	28062.722
649.869	28051.278
649.997	28123.765
650.125	28168.922
650.253	28181.974
650.381	28175.661
650.509	28136.713
650.638	28281.313
650.766	28381.826
650.894	28249.330
651.022	28238.774
651.150	28292.035
651.278	28266.548
651.406	28268.539
651.534	28307.870
651.663	28276.357
651.791	28512.522
651.919	28474.470
652.047	28477.365
652.175	28508.696
652.303	28522.548
652.431	28545.113
652.559	28601.983
652.688	28614.957
652.816	28725.348
652.944	28576.243
653.072	28571.374
653.200	28584.965
653.328	28679.930
653.456	28629.157
653.584	28763.887
653.713	28746.296
653.841	28758.191
653.969	28794.522
654.097	28828.443
654.225	28870.791
654.353	28881.635
654.481	28863.670
654.609	28950.365
654.738	28900.026
654.866	28904.470
654.994	29018.209
655.122	29007.235
655.250	29065.670
655.378	28891.652
655.506	29002.070
655.634	29038.217
655.763	28919.043
655.891	28976.783
656.019	28985.774
656.147	29034.600
656.275	29024.009
656.403	29031.383
656.531	29017.617
656.659	29073.948
656.788	29072.165
656.916	29058.887
657.044	29091.087
657.172	29091.426
657.300	29223.139
657.428	29034.704
657.556	29102.757
657.684	29058.600
657.813	29040.322
657.941	29018.861
658.069	28965.513
658.197	28959.348
658.325	29054.061
658.453	28996.870
658.581	28929.600
658.709	28966.974
658.838	29105.722
658.966	29011.052
659.094	29071.948
659.222	29024.635
659.350	29013.061
659.478	29113.574
659.606	29051.530
659.734	29105.200
659.863	29012.557
659.991	28957.339
660.119	29020.017
660.247	29216.139
660.375	28975.122
660.503	29029.757
660.631	29057.913
660.759	29000.461
660.888	29062.783
661.016	29034.974
661.144	29075.078
661.272	29130.826
661.400	29111.583
661.528	29109.991
661.656	29122.765
661.784	29098.817
661.913	29200.200
662.041	29299.043
662.169	29252.878
662.297	29416.191
662.425	29361.070
662.553	29480.887
662.681	29400.252
662.809	29496.130
662.938	29425.852
663.066	29450.122
663.194	29484.939
663.322	29525.226
663.450	29588.200
663.578	29670.426
663.706	29794.400
663.834	29657.843
663.963	29656.852
664.091	29672.835
664.219	29677.557
664.347	29793.504
664.475	29858.896
664.603	29735.904
664.731	29697.183
664.859	29763.635
664.988	29816.513
665.116	29800.887
665.244	29865.061
665.372	29917.791
665.500	30001.800
665.628	29950.757
665.756	29987.078
665.884	29966.200
666.013	30002.835
666.141	30094.826
666.269	30108.383
666.397	30105.052
666.525	30107.165
666.653	30119.957
666.781	30276.243
666.909	30246.443
667.038	30336.217
667.166	30299.783
667.294	30308.017
667.422	30306.391
667.550	30242.617
667.678	30216.383
667.806	30184.200
667.934	30122.113
668.063	30127.383
668.191	30074.843
668.319	30176.643
668.447	30114.087
668.575	30191.061
668.703	30161.635
668.831	30232.409
668.959	30265.122
669.088	30350.600
669.216	30227.870
669.344	30241.304
669.472	30209.357
669.600	30295.017
669.728	30312.809
669.856	30227.852
669.984	30254.235
670.113	30198.635
670.241	30180.591
670.369	30167.435
670.497	30096.652
670.625	30140.557
670.753	30312.070
670.881	30300.739
671.009	30100.791
671.138	29981.696
671.266	29936.409
671.394	29877.522
671.522	29837.026
671.650	29707.783
671.778	29651.983
671.906	29644.617
672.034	29642.304
672.163	29621.070
672.291	29597.843
672.419	29678.391
672.547	29629.087
672.675	29591.035
672.803	29581.609
672.931	29531.070
673.059	29456.461
673.188	29295.565
673.316	29190.487
673.444	29209.591
673.572	29166.096
673.700	28962.148
673.828	28903.226
673.956	28829.478
674.084	28730.235
674.213	28744.426
674.341	28693.409
674.469	28580.270
674.597	28596.583
674.725	28586.174
674.853	28501.887
674.981	28530.409
675.109	28407.087
675.238	28327.565
675.366	28273.191
675.494	28132.843
675.622	28137.330
675.750	28079.574
675.878	28025.296
676.006	27947.226
676.134	27938.000
676.263	27901.217
676.391	27857.226
676.519	27767.113
676.647	27791.017
676.775	27664.235
676.903	27745.078
677.031	27623.383
677.159	27571.070
677.288	27638.252
677.416	27432.852
677.544	27450.870
677.672	27368.870
677.800	27360.635
677.928	27296.035
678.056	27258.609
678.184	27212.226
678.313	27178.774
678.441	27128.035
678.569	27278.183
678.697	27041.722
678.825	27019.983
678.953	27015.026
679.081	26955.843
679.209	26884.670
679.338	26929.357
679.466	26811.417
679.594	26844.661
679.722	26861.887
679.850	26757.957
679.978	26729.087
680.106	26663.139
680.234	26646.774
680.363	26600.183
680.491	26502.009
680.619	26617.539
680.747	26441.070
680.875	26332.957
681.003	26288.235
681.131	26253.261
681.259	26175.757
681.388	26153.730
681.516	26200.061
681.644	26004.843
681.772	26206.383
681.900	26045.383
682.028	25997.043
682.156	25915.783
682.284	25901.513
682.413	25840.183
682.541	25745.017
682.669	25674.017
682.797	25653.696
682.925	25584.965
683.053	25540.348
683.181	25555.122
683.309	25486.087
683.438	25432.113
683.566	25486.191
683.694	25430.765
683.822	25379.861
683.950	25322.539
684.078	25273.870
684.206	25270.400
684.334	25211.774
684.463	25199.539
684.591	25042.096
684.719	24891.809
684.847	24813.930
684.975	24857.983
685.103	24723.113
685.231	24783.652
685.359	24615.070
685.488	24599.226
685.616	24584.148
685.744	24508.557
685.872	24435.983
686.000	24449.539
686.128	24335.739
686.256	24319.939
686.384	24251.809
686.513	24155.600
686.641	24118.739
686.769	24024.757
686.897	23986.330
687.025	23830.226
687.153	23797.496
687.281	23759.600
687.409	23669.817
687.538	23557.557
687.666	23522.191
687.794	23492.322
687.922	23369.704
688.050	23267.235
688.178	23314.739
688.306	23271.704
688.434	23121.713
688.563	23082.278
688.691	22951.783
688.819	22974.557
688.947	22814.113
689.075	22809.070
689.203	22703.948
689.331	22541.435
689.459	22441.113
689.588	22365.513
689.716	22192.026
689.844	22146.487
689.972	22038.070
690.100	21954.026
690.228	21919.070
690.356	21790.139
690.484	21767.957
690.613	21596.296
690.741	21471.948
690.869	21388.965
690.997	21313.357
691.125	21374.209
691.253	21274.826
691.381	21016.948
691.509	20881.478
691.638	20763.391
691.766	20689.513
691.894	20566.904
692.022	20488.165
692.150	20365.835
692.278	20229.278
692.406	20127.826
692.534	19995.652
692.663	19925.113
692.791	19841.096
692.919	19752.000
693.047	19640.487
693.175	19534.061
693.303	19440.426
693.431	19290.530
693.559	19250.078
693.688	19178.791
693.816	18973.678
693.944	18942.583
694.072	18807.487
694.200	18733.243
694.328	18629.470
694.456	18525.861
694.584	18333.626
694.713	18271.322
694.841	18157.357
694.969	18068.148
695.097	18094.304
695.225	17804.200
695.353	17804.904
695.481	17615.757
695.609	17634.609
695.738	17485.191
695.866	17441.678
695.994	17333.487
696.122	17312.322
696.250	17072.000
696.378	16925.530
696.506	16716.574
696.634	16575.383
696.763	16440.209
696.891	16319.130
697.019	16185.870
697.147	16089.835
697.275	15908.783
697.403	15791.957
697.531	15672.504
697.659	15494.878
697.788	15489.417
697.916	15346.017
698.044	15214.078
698.172	15128.522
698.300	15122.678
698.428	14967.365
698.556	14939.113
698.684	14925.609
698.813	14877.835
698.941	14772.278
699.069	14616.165
699.197	14495.157
699.325	14365.417
699.453	14246.670
699.581	14259.670
699.709	14054.426
699.838	13947.774
699.966	13818.835
700.094	13733.713
700.222	13705.696
700.350	13545.157
700.478	13408.661
700.606	13239.913
700.734	13147.870
700.863	12965.783
700.991	12936.400
701.119	12774.791
701.247	12620.348
701.375	12591.870
701.503	12376.296
701.631	12287.322
701.759	12163.861
701.888	12077.843
702.016	12017.965
702.144	11788.878
702.272	11702.426
702.400	11577.330
702.528	11488.348
702.656	11456.374
702.784	11209.722
702.913	11102.791
703.041	10974.139
703.169	10969.991
703.297	10757.643
703.425	10650.200
703.553	10574.922
703.681	10461.252
703.809	10355.061
703.938	10173.809
704.066	10203.617
704.194	10041.548
704.322	9868.748
704.450	9773.739
704.578	9648.391
704.706	9620.991
704.834	9522.035
704.963	9415.400
705.091	9232.122
705.219	9180.322
705.347	9021.513
705.475	8878.896
705.603	8817.991
705.731	8729.800
705.859	8590.130
705.988	8530.548
706.116	8424.826
706.244	8294.835
706.372	8282.278
706.500	8114.304
706.628	8099.617
706.756	7970.939
706.884	7873.922
707.013	7819.843
707.141	7635.904
707.269	7632.922
707.397	7487.687
707.525	7420.417
707.653	7339.017
707.781	7291.104
707.909	7189.939
708.038	7115.809
708.166	7007.557
708.294	6938.957
708.422	6854.878
708.550	6817.261
708.678	6700.113
708.806	6691.113
708.934	6528.826
709.063	6485.304
709.191	6407.826
709.319	6344.913
709.447	6276.096
709.575	6158.026
709.703	6096.904
709.831	6082.496
709.959	5952.922
710.088	5922.113
710.216	5926.052
710.344	5773.887
710.472	5752.113
710.600	5723.261
710.728	5593.330
710.856	5523.443
710.984	5514.096
711.113	5417.522
711.241	5368.417
711.369	5340.148
711.497	5208.322
711.625	5155.852
711.753	5100.591
711.881	5029.783
712.009	5081.174
712.138	4948.878
712.266	4866.591
712.394	4807.835
712.522	4737.965
712.650	4730.009
712.778	4686.600
712.906	4608.470
713.034	4543.339
713.163	4517.678
713.291	4451.226
713.419	4419.043
713.547	4318.896
713.675	4268.687
713.803	4174.983
713.931	4152.200
714.059	4076.565
714.188	4037.365
714.316	3973.530
714.444	3915.122
714.572	3942.000
714.700	3831.235
714.828	3766.461
714.956	3714.565
715.084	3642.670
715.213	3626.165
715.341	3589.426
715.469	3505.113
715.597	3559.191
715.725	3422.783
715.853	3399.991
715.981	3340.365
716.109	3328.339
716.238	3249.609
716.366	3196.609
716.494	3225.548
716.622	3117.574
716.750	3060.183
716.878	3079.600
717.006	2989.096
717.134	2916.496
717.263	2886.670
717.391	2873.148
717.519	2789.043
717.647	2816.000
717.775	2718.078
717.903	2670.313
718.031	2623.061
718.159	2622.043
718.288	2583.270
718.416	2564.478
718.544	2521.243
718.672	2469.878
718.800	2426.017
718.928	2435.704
719.056	2354.270
719.184	2364.687
719.313	2277.539
719.441	2290.426
719.569	2187.504
719.697	2192.443
719.825	2214.365
719.953	2130.765
720.081	2096.357
720.209	2067.174
720.338	2016.261
720.466	1982.322
720.594	1972.235
720.722	1979.096
720.850	1918.730
720.978	1881.800
721.106	1847.791
721.234	1822.061
721.363	1796.496
721.491	1776.826
721.619	1738.191
721.747	1719.661
721.875	1695.974
722.003	1686.939
722.131	1656.530
722.259	1615.826
722.388	1595.461
722.516	1564.104
722.644	1558.148
722.772	1537.826
722.900	1498.270
723.028	1491.809
723.156	1448.270
723.284	1432.017
723.413	1412.600
723.541	1406.391
723.669	1364.626
723.797	1354.452
723.925	1329.957
724.053	1312.983
724.181	1306.000
724.309	1267.217
724.438	1257.748
724.566	1256.948
724.694	1230.843
724.822	1206.113
724.950	1183.565
725.078	1174.183
725.206	1159.713
725.334	1136.809
725.463	1120.609
725.591	1112.165
725.719	1087.591
725.847	1077.478
725.975	1066.243
726.103	1058.043
726.231	1031.948
726.359	1009.452
726.488	1008.948
726.616	991.522
726.744	980.896
726.872	957.583
727.000	952.157
727.128	940.991
727.256	923.070
727.384	902.835
727.513	904.826
727.641	886.096
727.769	877.609
727.897	872.278
728.025	860.270
728.153	846.965
728.281	832.357
728.409	833.104
728.538	819.617
728.666	808.800
728.794	797.391
728.922	786.409
729.050	779.835
729.178	766.930
729.306	757.139
729.434	756.583
729.563	740.974
729.691	732.522
729.819	737.322
729.947	716.383
730.075	710.157
730.203	694.817
730.331	687.087
730.459	679.974
730.588	669.791
730.716	653.722
730.844	648.096
730.972	652.800
731.100	647.217
731.228	630.235
731.356	624.200
731.484	620.322
731.613	607.252
731.741	606.191
731.869	594.304
731.997	598.487
732.125	588.817
732.253	583.678
732.381	580.365
732.509	570.026
732.638	562.539
732.766	562.687
732.894	552.826
733.022	549.713
733.150	547.322
733.278	536.496
733.406	528.365
733.534	523.061
733.663	516.452
733.791	514.722
733.919	516.209
734.047	498.713
734.175	493.687
734.303	489.043
734.431	480.017
734.559	482.930
734.688	472.852
734.816	462.130
734.944	456.548
735.072	462.470
735.200	450.017
735.328	440.157
735.456	434.357
735.584	444.243
735.713	436.704
735.841	424.313
735.969	426.730
736.097	419.930
736.225	415.878
736.353	410.896
736.481	406.052
736.609	405.939
736.738	404.183
736.866	394.235
736.994	394.913
737.122	393.826
737.250	389.539
737.378	379.383
737.506	370.861
737.634	378.409
737.763	367.539
737.891	366.852
738.019	364.296
738.147	370.600
738.275	354.904
738.403	357.643
738.531	348.904
738.659	344.557
738.788	341.809
738.916	338.870
739.044	329.504
739.172	335.739
739.300	323.304
739.428	320.043
739.556	319.070
739.684	316.591
739.813	320.061
739.941	318.174
740.069	311.800
740.197	306.965
740.325	300.713
740.453	302.043
740.581	296.783
740.709	293.974
740.838	291.496
740.966	287.435
741.094	285.704
741.222	284.939
741.350	276.400
741.478	278.670
741.606	276.452
741.734	270.409
741.863	272.583
741.991	276.557
742.119	268.600
742.247	264.130
742.375	269.243
742.503	263.461
742.631	261.287
742.759	256.826
742.888	254.357
743.016	254.104
743.144	249.426
743.272	252.504
743.400	246.574
743.528	245.817
743.656	248.348
743.784	239.496
743.913	240.322
744.041	234.783
744.169	231.609
744.297	235.017
744.425	241.052
744.553	230.052
744.681	227.504
744.809	228.565
744.938	224.313
745.066	222.322
745.194	222.278
745.322	219.200
745.450	220.739
745.578	218.409
745.706	217.061
745.834	210.278
745.963	221.609
746.091	210.765
746.219	209.783
746.347	210.800
746.475	208.565
746.603	210.565
746.731	200.791
746.859	203.383
746.988	197.148
747.116	205.478
747.244	199.000
747.372	197.557
747.500	189.313
747.628	194.104
747.756	197.730
747.884	195.461
748.013	192.391
748.141	193.461
748.269	192.870
748.397	188.035
748.525	187.174
748.653	186.409
748.781	185.948
748.909	185.391
749.038	186.122
749.166	183.539
749.294	187.383
749.422	183.687
749.550	184.722
749.678	182.200
749.806	177.626
749.934	181.835
750.063	178.948
750.191	178.748
750.319	174.096
750.447	179.539
750.575	172.252
750.703	176.791
750.831	181.043
750.959	169.104
751.088	168.539
751.216	168.200
751.344	160.922
751.472	165.983
751.600	168.000
751.728	170.896
751.856	166.687
751.984	164.409
752.113	161.722
752.241	161.974
752.369	165.965
752.497	161.643
752.625	168.270
752.753	159.913
752.881	164.878
753.009	160.461
753.138	156.000
753.266	160.435
753.394	163.591
753.522	159.765
753.650	163.078
753.778	164.739
753.906	155.278
754.034	159.557
754.163	155.835
754.291	153.800
754.419	162.165
754.547	155.504
754.675	150.539
754.803	156.800
754.931	153.157
755.059	154.783
755.188	153.670
755.316	149.139
755.444	155.870
755.572	151.383
755.700	151.139
755.828	145.339
755.956	147.113
756.084	149.200
756.213	146.452
756.341	146.009
756.469	152.957
756.597	148.548
756.725	150.783
756.853	167.643
756.981	176.348
757.109	164.096
757.238	144.435
757.366	141.209
757.494	144.504
757.622	145.070
757.750	140.713
757.878	139.174
758.006	147.278
758.134	142.913
758.263	142.913
758.391	151.965
758.519	139.365
758.647	141.913
758.775	136.122
758.903	143.557
759.031	138.061
759.159	139.617
759.288	133.670
759.416	135.522
759.544	137.896
759.672	140.374
759.800	138.539
759.928	133.217
760.056	139.487
760.184	147.870
760.313	137.061
760.441	135.939
760.569	138.565
760.697	137.930
760.825	134.357
760.953	133.304
761.081	135.261
761.209	133.322
761.338	131.861
761.466	138.426
761.594	132.548
761.722	135.713
761.850	131.487
761.978	136.348
762.106	132.357
762.234	132.070
762.363	131.983
762.491	132.800
762.619	130.313
762.747	135.861
762.875	133.852
763.003	137.617
763.131	137.200
763.259	134.026
763.388	128.713
763.516	127.583
763.644	135.461
763.772	129.774
763.900	132.565
764.028	128.539
764.156	129.400
764.284	131.017
764.413	133.357
764.541	129.704
764.669	132.600
764.797	130.983
764.925	137.783
765.053	128.852
765.181	131.330
765.309	127.704
765.438	127.235
765.566	128.887
765.694	128.157
765.822	136.200
765.950	130.739
766.078	134.530
766.206	127.104
766.334	127.235
766.463	126.713
766.591	128.461
766.719	129.304
766.847	126.896
766.975	135.504
767.103	130.661
767.231	127.757
767.359	126.965
767.488	123.548
767.616	128.061
767.744	128.409
767.872	124.426
768.000	126.861
768.128	125.061
768.256	127.739
768.384	137.565
768.513	126.922
768.641	121.861
768.769	124.713
768.897	123.235
769.025	122.017
769.153	124.539
769.281	119.478
769.409	121.226
769.538	127.070
769.666	117.583
769.794	124.409
769.922	119.722
770.050	124.948
770.178	127.461
770.306	120.817
770.434	119.365
770.563	121.696
770.691	115.470
770.819	120.017
770.947	122.939
771.075	121.035
771.203	119.983
771.331	123.070
771.459	123.887
771.588	119.913
771.716	120.687
771.844	122.339
771.972	121.122
772.100	123.617
772.228	121.383
772.356	118.887
772.484	118.878
772.613	117.930
772.741	116.557
772.869	115.426
772.997	120.478
773.125	121.374
773.253	118.930
773.381	119.139
773.509	120.052
773.638	121.374
773.766	118.965
773.894	123.991
774.022	117.583
774.150	126.174
774.278	122.270
774.406	120.713
774.534	117.348
774.663	122.061
774.791	119.852
774.919	115.391
775.047	115.235
775.175	117.278
775.303	118.757
775.431	116.174
775.559	120.113
775.688	117.322
775.816	118.635
775.944	118.991
776.072	119.696
776.200	116.643
776.328	116.148
776.456	120.043
776.584	115.217
776.713	118.374
776.841	119.730
776.969	118.278
777.097	114.365
777.225	116.530
777.353	116.278
777.481	127.409
777.609	116.348
777.738	119.957
777.866	119.017
777.994	118.922
778.122	116.574
778.250	112.357
778.378	119.904
778.506	124.878
778.634	116.852
778.763	116.965
778.891	118.809
779.019	112.087
779.147	113.165
779.275	112.357
779.403	116.043
779.531	120.148
779.659	116.574
779.788	113.043
779.916	116.591
780.044	116.991
780.172	114.687
780.300	114.991
780.428	115.391
780.556	115.957
780.684	122.217
780.813	112.496
780.941	114.504
781.069	113.713
781.197	114.800
781.325	114.348
781.453	117.887
781.581	111.252
781.709	116.043
781.838	118.861
781.966	117.070
782.094	113.130
782.222	113.661
782.350	111.800
782.478	113.835
782.606	112.843
782.734	110.357
782.863	110.052
782.991	113.930
783.119	118.870
783.247	116.226
783.375	117.783
783.503	112.452
783.631	111.191
783.759	112.426
783.888	111.139
784.016	111.243
784.144	112.678
784.272	113.043
784.400	114.861
784.528	112.817
784.656	115.383
784.784	113.652
784.913	113.043
785.041	110.904
785.169	113.104
785.297	110.148
785.425	109.591
785.553	116.504
785.681	110.374
785.809	109.678
785.938	110.948
786.066	111.896
786.194	112.435
786.322	109.826
786.450	110.261
786.578	109.791
786.706	109.452
786.834	109.513
786.963	111.243
787.091	110.939
787.219	110.965
787.347	111.452
787.475	111.948
787.603	112.504
787.731	112.113
787.859	111.626
787.988	110.904
788.116	110.174
788.244	108.957
788.372	111.304
788.500	110.930
788.628	110.070
788.756	113.574
788.884	111.800
789.013	110.217
789.141	109.896
789.269	110.391
789.397	114.678
789.525	113.748
789.653	111.643
789.781	110.443
789.909	114.557
790.038	111.383
790.166	110.139
790.294	110.383
790.422	109.417
790.550	108.896
790.678	108.104
790.806	109.261
790.934	110.374
791.063	111.739
791.191	109.183
791.319	109.826
791.447	111.713
791.575	109.026
791.703	110.852
791.831	115.209
791.959	110.017
792.088	131.809
792.216	111.574
792.344	115.417
792.472	109.148
792.600	114.513
792.728	111.000
792.856	114.139
792.984	112.470
793.113	110.278
793.241	111.652
793.369	112.609
793.497	107.591
793.625	106.357
793.753	108.426
793.881	113.817
794.009	110.896
794.138	111.017
794.266	115.765
794.394	105.635
794.522	109.687
794.650	114.861
794.778	114.557
794.906	110.600
795.034	113.009
795.163	111.096
795.291	108.409
795.419	109.183
795.547	109.643
795.675	106.809
795.803	111.722
795.931	111.496
796.059	110.617
796.188	109.217
796.316	111.365
796.444	108.800
796.572	107.722
796.700	110.504
796.828	110.435
796.956	111.122
797.084	110.965
797.213	111.165
797.341	109.296
797.469	108.617
797.597	110.870
797.725	108.313
797.853	108.522
797.981	107.800
798.109	110.365
798.238	108.096
798.366	113.870
798.494	108.383
798.622	109.348
798.750	107.513
798.878	106.487
799.006	108.035
799.134	109.591
799.263	109.800
799.391	110.357
799.519	110.539
799.647	107.757
799.775	108.130
799.903	108.070
800.031	112.643
800.159	108.722
800.288	106.861
800.416	107.930
800.544	106.174
800.672	107.861
800.800	108.235
800.928	113.165
801.056	106.522
801.184	109.383
801.313	110.226
801.441	108.652
801.569	110.957
801.697	106.035
801.825	106.470
801.953	110.383
802.081	108.061
802.209	107.174
802.338	108.704
802.466	106.791
802.594	109.000
802.722	108.435
802.850	108.617
802.978	108.600
803.106	107.235
803.234	109.043
803.363	111.443
803.491	109.157
803.619	109.522
803.747	109.878
803.875	112.487
804.003	108.417
804.131	110.313
804.259	109.809
804.388	111.078
804.516	111.017
804.644	107.809
804.772	109.322
804.900	106.904
805.028	107.835
805.156	114.296
805.284	108.130
805.413	110.383
805.541	110.496
805.669	112.435
805.797	112.052
805.925	108.043
806.053	108.243
806.181	109.957
806.309	110.409
806.438	107.487
806.566	105.922
806.694	112.330
806.822	111.461
806.950	107.609
807.078	107.983
807.206	111.174
807.334	108.200
807.463	110.365
807.591	109.852
807.719	108.391
807.847	108.948
807.975	106.704
808.103	108.435
808.231	110.504
808.359	109.365
808.488	110.687
808.616	110.426
808.744	110.783
808.872	109.052
809.000	113.313
809.128	113.478
809.256	110.678
809.384	107.852
809.513	109.696
809.641	109.461
809.769	109.409
809.897	108.861
810.025	113.861
810.153	111.774
810.281	113.609
810.409	108.157
810.538	111.913
810.666	112.452
810.794	111.696
810.922	109.557
811.050	109.261
811.178	110.409
811.306	111.513
811.434	111.000
811.563	115.217
811.691	114.774
811.819	110.783
811.947	116.313
812.075	108.209
812.203	109.617
812.331	112.583
812.459	111.130
812.588	116.826
812.716	109.965
812.844	111.122
812.972	110.922
813.100	117.035
813.228	115.191
813.356	119.322
813.484	114.026
813.613	111.896
813.741	112.139
813.869	112.183
