spectrometer_dunkelfeld_100nm_einzel_at_650.00nm_cut_at_1436.50Y_01.dat
02.05.2022
13:22:18
cut middle at Y: 1436.50
top cursor: 1494 down cursor: 1379 mean of: 115 lines , 2560 datapoints
wavelength(nm)	intensity[arb. units]
485.997	657.017
486.125	607.904
486.253	599.026
486.381	612.496
486.510	615.183
486.638	619.748
486.766	618.504
486.894	611.252
487.022	619.809
487.150	631.948
487.278	627.243
487.406	634.304
487.535	632.409
487.663	631.452
487.791	635.826
487.919	641.243
488.047	644.609
488.175	644.739
488.303	649.730
488.431	650.852
488.560	665.078
488.688	669.783
488.816	672.009
488.944	672.504
489.072	678.965
489.200	680.035
489.328	681.652
489.456	684.383
489.585	686.713
489.713	677.748
489.841	690.591
489.969	682.270
490.097	699.235
490.225	697.052
490.353	701.043
490.481	708.939
490.610	714.852
490.738	713.148
490.866	716.870
490.994	721.417
491.122	722.609
491.250	735.739
491.378	735.835
491.506	735.591
491.635	735.835
491.763	737.139
491.891	745.130
492.019	762.130
492.147	748.035
492.275	751.322
492.403	757.000
492.531	769.122
492.660	761.687
492.788	773.270
492.916	770.374
493.044	771.530
493.172	777.513
493.300	777.922
493.428	788.965
493.556	787.809
493.685	793.052
493.813	795.539
493.941	802.296
494.069	807.704
494.197	812.070
494.325	819.635
494.453	832.322
494.581	822.513
494.710	825.313
494.838	831.296
494.966	843.983
495.094	830.148
495.222	845.435
495.350	841.939
495.478	855.783
495.606	862.583
495.735	859.574
495.863	855.330
495.991	855.113
496.119	866.270
496.247	871.400
496.375	864.148
496.503	882.817
496.631	901.791
496.760	872.913
496.888	883.548
497.016	894.730
497.144	894.913
497.272	887.670
497.400	896.157
497.528	895.791
497.656	895.191
497.785	894.374
497.913	907.296
498.041	902.948
498.169	915.078
498.297	901.270
498.425	898.504
498.553	920.722
498.681	918.174
498.810	931.487
498.938	918.983
499.066	935.400
499.194	931.270
499.322	935.878
499.450	939.817
499.578	936.800
499.706	942.948
499.835	956.461
499.963	956.870
500.091	955.522
500.219	969.191
500.347	968.809
500.475	976.591
500.603	975.887
500.731	990.591
500.860	998.565
500.988	988.443
501.116	988.800
501.244	1019.391
501.372	1010.174
501.500	1011.183
501.628	1016.391
501.756	1017.913
501.885	1023.896
502.013	1035.313
502.141	1035.148
502.269	1041.652
502.397	1043.278
502.525	1039.904
502.653	1050.113
502.781	1055.330
502.910	1058.626
503.038	1065.913
503.166	1058.139
503.294	1070.148
503.422	1070.304
503.550	1079.165
503.678	1082.609
503.806	1079.539
503.935	1089.278
504.063	1099.687
504.191	1089.252
504.319	1104.026
504.447	1092.270
504.575	1090.217
504.703	1098.548
504.831	1109.983
504.960	1103.443
505.088	1109.661
505.216	1115.313
505.344	1116.843
505.472	1107.409
505.600	1125.609
505.728	1129.417
505.856	1137.270
505.985	1137.104
506.113	1154.748
506.241	1159.130
506.369	1166.130
506.497	1144.574
506.625	1168.504
506.753	1168.487
506.881	1174.974
507.010	1190.061
507.138	1196.722
507.266	1197.435
507.394	1206.922
507.522	1219.130
507.650	1224.678
507.778	1221.826
507.906	1238.852
508.035	1235.339
508.163	1250.643
508.291	1251.504
508.419	1266.209
508.547	1259.104
508.675	1282.713
508.803	1281.017
508.931	1284.565
509.060	1289.991
509.188	1298.357
509.316	1298.635
509.444	1304.174
509.572	1316.278
509.700	1321.278
509.828	1333.765
509.956	1338.113
510.085	1313.635
510.213	1348.809
510.341	1349.548
510.469	1366.365
510.597	1359.417
510.725	1346.870
510.853	1360.774
510.981	1361.070
511.110	1375.791
511.238	1389.252
511.366	1375.104
511.494	1377.322
511.622	1377.809
511.750	1390.391
511.878	1397.322
512.006	1403.078
512.135	1410.304
512.263	1422.913
512.391	1406.052
512.519	1413.209
512.647	1424.826
512.775	1428.878
512.903	1423.417
513.031	1427.922
513.160	1447.296
513.288	1458.574
513.416	1437.157
513.544	1458.391
513.672	1444.704
513.800	1460.096
513.928	1454.635
514.056	1467.643
514.185	1471.165
514.313	1462.765
514.441	1471.835
514.569	1478.939
514.697	1479.061
514.825	1475.391
514.953	1483.670
515.081	1483.974
515.210	1477.017
515.338	1500.113
515.466	1487.896
515.594	1495.930
515.722	1492.983
515.850	1503.278
515.978	1508.513
516.106	1506.043
516.235	1514.496
516.363	1531.096
516.491	1525.061
516.619	1541.122
516.747	1536.139
516.875	1536.304
517.003	1539.643
517.131	1549.409
517.260	1545.487
517.388	1544.722
517.516	1566.600
517.644	1574.017
517.772	1585.043
517.900	1591.191
518.028	1590.270
518.156	1606.670
518.284	1599.113
518.413	1621.557
518.541	1624.696
518.669	1632.774
518.797	1635.400
518.925	1642.922
519.053	1668.948
519.181	1651.965
519.309	1683.191
519.438	1679.365
519.566	1673.496
519.694	1674.226
519.822	1689.461
519.950	1695.843
520.078	1690.383
520.206	1704.261
520.334	1724.739
520.463	1715.635
520.591	1719.904
520.719	1726.600
520.847	1738.817
520.975	1727.191
521.103	1760.878
521.231	1752.939
521.359	1814.400
521.488	1757.122
521.616	1782.391
521.744	1750.965
521.872	1806.522
522.000	1739.870
522.128	1757.687
522.256	1760.348
522.384	1780.896
522.513	1766.330
522.641	1787.391
522.769	1818.365
522.897	1818.748
523.025	1819.209
523.153	1806.530
523.281	1850.678
523.409	1801.191
523.538	1828.861
523.666	1808.617
523.794	1827.217
523.922	1837.496
524.050	1838.539
524.178	1839.730
524.306	1838.713
524.434	1887.261
524.563	1895.209
524.691	1969.122
524.819	1884.148
524.947	1899.417
525.075	1879.452
525.203	1902.417
525.331	1917.443
525.459	1969.409
525.588	1936.348
525.716	1972.548
525.844	1974.904
525.972	1989.139
526.100	1988.904
526.228	1988.443
526.356	1991.652
526.484	2034.800
526.613	2011.270
526.741	2038.930
526.869	2028.974
526.997	2066.530
527.125	2037.600
527.253	2048.417
527.381	2099.496
527.509	2074.052
527.638	2123.861
527.766	2137.939
527.894	2142.009
528.022	2182.809
528.150	2114.870
528.278	2179.461
528.406	2151.748
528.534	2161.713
528.663	2168.713
528.791	2230.687
528.919	2202.243
529.047	2269.922
529.175	2186.939
529.303	2214.096
529.431	2207.052
529.559	2230.043
529.688	2226.661
529.816	2254.870
529.944	2284.800
530.072	2265.904
530.200	2243.983
530.328	2265.209
530.456	2269.983
530.584	2261.365
530.713	2288.957
530.841	2302.765
530.969	2278.635
531.097	2292.722
531.225	2305.070
531.353	2355.661
531.481	2318.487
531.609	2422.600
531.738	2317.852
531.866	2402.565
531.994	2375.678
532.122	2445.861
532.250	2369.557
532.378	2374.713
532.506	2369.852
532.634	2393.922
532.763	2361.026
532.891	2378.252
533.019	2397.165
533.147	2400.148
533.275	2404.322
533.403	2457.374
533.531	2428.939
533.659	2451.835
533.788	2445.383
533.916	2437.304
534.044	2470.757
534.172	2485.983
534.300	2493.922
534.428	2492.191
534.556	2618.435
534.684	2523.661
534.813	2529.061
534.941	2539.513
535.069	2540.704
535.197	2549.200
535.325	2567.148
535.453	2577.409
535.581	2642.070
535.709	2586.009
535.838	2605.313
535.966	2615.722
536.094	2622.939
536.222	2630.461
536.350	2616.835
536.478	2616.104
536.606	2661.235
536.734	2653.487
536.863	2656.043
536.991	2668.835
537.119	2685.783
537.247	2663.687
537.375	2767.713
537.503	2683.643
537.631	2702.191
537.759	2715.304
537.888	2709.174
538.016	2810.670
538.144	2750.922
538.272	2748.165
538.400	2782.574
538.528	2762.061
538.656	2790.861
538.784	2792.661
538.913	2829.304
539.041	2817.043
539.169	2829.183
539.297	2832.930
539.425	2887.348
539.553	2865.365
539.681	2906.826
539.809	2893.591
539.938	2876.583
540.066	2896.261
540.194	2908.861
540.322	2979.652
540.450	2964.687
540.578	2937.078
540.706	2950.078
540.834	2962.330
540.963	3031.835
541.091	2957.661
541.219	2990.313
541.347	3032.104
541.475	3015.252
541.603	3015.530
541.731	3021.930
541.859	3021.035
541.988	3054.200
542.116	3141.565
542.244	3064.383
542.372	3161.391
542.500	3058.765
542.628	3118.365
542.756	3069.991
542.884	3107.470
543.013	3123.478
543.141	3142.461
543.269	3144.183
543.397	3105.200
543.525	3127.200
543.653	3185.522
543.781	3133.235
543.909	3131.478
544.038	3191.896
544.166	3190.730
544.294	3244.991
544.422	3159.287
544.550	3190.487
544.678	3222.374
544.806	3193.583
544.934	3168.078
545.063	3215.687
545.191	3261.791
545.319	3223.757
545.447	3173.583
545.575	3215.322
545.703	3256.304
545.831	3244.104
545.959	3222.322
546.088	3239.565
546.216	3223.678
546.344	3239.296
546.472	3348.017
546.600	3267.000
546.728	3266.487
546.856	3287.887
546.984	3280.991
547.113	3331.391
547.241	3307.530
547.369	3368.922
547.497	3358.870
547.625	3367.339
547.753	3392.426
547.881	3358.730
548.009	3390.948
548.138	3421.643
548.266	3412.722
548.394	3518.800
548.522	3452.139
548.650	3547.400
548.778	3545.130
548.906	3515.322
549.034	3564.278
549.163	3529.017
549.291	3521.157
549.419	3552.617
549.547	3657.791
549.675	3572.991
549.803	3589.774
549.931	3603.217
550.059	3617.270
550.188	3679.313
550.316	3657.713
550.444	3709.965
550.572	3663.652
550.700	3685.287
550.828	3706.661
550.956	3703.339
551.084	3788.417
551.213	3736.470
551.341	3789.530
551.469	3794.887
551.597	3828.470
551.725	3858.113
551.853	3816.974
551.981	3846.165
552.109	3869.487
552.238	3898.583
552.366	3889.061
552.494	3921.209
552.622	3898.983
552.750	3930.287
552.878	3938.243
553.006	3997.035
553.134	3972.652
553.263	3959.400
553.391	3991.017
553.519	4089.096
553.647	4020.565
553.775	4009.687
553.903	4079.391
554.031	4039.226
554.159	4014.191
554.288	4054.913
554.416	4056.904
554.544	4068.104
554.672	4051.113
554.800	4074.513
554.928	4084.609
555.056	4070.157
555.184	4104.878
555.313	4097.591
555.441	4091.043
555.569	4119.400
555.697	4166.800
555.825	4143.426
555.953	4148.409
556.081	4151.574
556.209	4171.243
556.338	4179.539
556.466	4272.670
556.594	4190.522
556.722	4228.896
556.850	4274.391
556.978	4181.548
557.106	4240.965
557.234	4245.496
557.363	4283.974
557.491	4276.887
557.619	4277.209
557.747	4286.687
557.875	4260.200
558.003	4288.452
558.131	4292.478
558.259	4320.530
558.388	4305.652
558.516	4333.330
558.644	4330.104
558.772	4407.270
558.900	4358.530
559.028	4377.565
559.156	4411.400
559.284	4390.261
559.413	4428.783
559.541	4425.061
559.669	4460.522
559.797	4508.617
559.925	4471.661
560.053	4514.791
560.181	4471.748
560.309	4549.574
560.438	4573.791
560.566	4560.017
560.694	4549.435
560.822	4687.478
560.950	4577.896
561.078	4624.409
561.206	4732.391
561.334	4626.313
561.463	4611.478
561.591	4723.096
561.719	4661.965
561.847	4735.243
561.975	4705.470
562.103	4709.070
562.231	4762.730
562.359	4703.861
562.488	4784.296
562.616	4768.183
562.744	4819.278
562.872	4814.357
563.000	4789.148
563.128	4811.478
563.256	4829.548
563.384	4938.617
563.513	4849.252
563.641	4907.878
563.769	4946.296
563.897	4887.965
564.025	4947.226
564.153	4939.148
564.281	5021.157
564.409	4990.783
564.538	4994.626
564.666	5030.513
564.794	5057.583
564.922	5018.339
565.050	5125.922
565.178	5071.078
565.306	5087.409
565.434	5117.643
565.563	5223.217
565.691	5173.157
565.819	5257.670
565.947	5177.330
566.075	5188.522
566.203	5222.226
566.331	5193.374
566.459	5243.574
566.588	5214.000
566.716	5266.565
566.844	5277.009
566.972	5299.330
567.100	5350.557
567.228	5425.643
567.356	5444.635
567.484	5395.930
567.613	5425.217
567.741	5470.157
567.869	5458.087
567.997	5482.861
568.125	5516.374
568.253	5585.383
568.381	5512.113
568.509	5564.904
568.638	5602.357
568.766	5646.452
568.894	5662.896
569.022	5639.417
569.150	5706.930
569.278	5647.557
569.406	5768.365
569.534	5752.113
569.663	5715.791
569.791	5748.852
569.919	5790.348
570.047	5913.191
570.175	5795.452
570.303	5816.870
570.431	5834.730
570.559	5898.478
570.688	5990.122
570.816	5874.557
570.944	5935.043
571.072	5901.696
571.200	5908.730
571.328	5932.183
571.456	5956.009
571.584	5963.652
571.713	5982.600
571.841	6013.522
571.969	6146.409
572.097	6113.148
572.225	5997.200
572.353	6044.913
572.481	6027.252
572.609	6097.539
572.738	6100.661
572.866	6081.139
572.994	6107.739
573.122	6130.809
573.250	6135.861
573.378	6120.052
573.506	6145.904
573.634	6182.565
573.763	6165.765
573.891	6166.278
574.019	6223.826
574.147	6185.435
574.275	6221.374
574.403	6284.043
574.531	6248.730
574.659	6311.217
574.788	6282.357
574.916	6429.922
575.044	6360.974
575.172	6371.704
575.300	6379.739
575.428	6378.539
575.556	6429.487
575.684	6440.304
575.813	6457.739
575.941	6467.391
576.069	6511.174
576.197	6549.504
576.325	6540.930
576.453	6583.835
576.581	6591.087
576.709	6598.400
576.838	6634.478
576.966	6749.974
577.094	6792.774
577.222	6766.017
577.350	6756.348
577.478	6841.530
577.606	6841.643
577.734	6861.696
577.863	6890.157
577.991	6902.113
578.119	7021.809
578.247	6989.913
578.375	7061.174
578.503	7059.957
578.631	7059.191
578.759	7122.496
578.888	7228.348
579.016	7137.139
579.144	7189.652
579.272	7209.096
579.400	7236.643
579.528	7297.443
579.656	7378.913
579.784	7352.200
579.913	7386.043
580.041	7549.652
580.169	7473.217
580.297	7537.461
580.425	7564.739
580.553	7550.652
580.681	7568.313
580.809	7622.200
580.938	7638.565
581.066	7738.504
581.194	7704.896
581.322	7733.670
581.450	7826.739
581.578	7829.983
581.706	7861.304
581.834	7920.948
581.963	7918.548
582.091	7952.017
582.219	8029.704
582.347	8065.896
582.475	8041.043
582.603	8113.652
582.731	8171.278
582.859	8134.678
582.988	8147.009
583.116	8199.661
583.244	8231.609
583.372	8262.748
583.500	8281.478
583.628	8356.661
583.756	8368.661
583.884	8380.930
584.013	8442.765
584.141	8408.478
584.269	8480.991
584.397	8547.565
584.525	8545.583
584.653	8575.000
584.781	8581.687
584.909	8636.400
585.038	8658.678
585.166	8661.165
585.294	8722.383
585.422	8708.278
585.550	8731.757
585.678	8760.400
585.806	8815.217
585.934	8784.035
586.063	8865.652
586.191	8820.783
586.319	8851.174
586.447	8851.617
586.575	8884.696
586.703	8965.974
586.831	8921.530
586.959	9007.191
587.088	8964.609
587.216	9014.678
587.344	9050.357
587.472	9181.139
587.600	9056.983
587.728	9067.409
587.856	9060.200
587.984	9089.139
588.113	9169.522
588.241	9139.843
588.369	9212.357
588.497	9203.817
588.625	9176.487
588.753	9373.226
588.881	9276.417
589.009	9296.070
589.138	9324.687
589.266	9349.113
589.394	9364.365
589.522	9416.748
589.650	9520.513
589.778	9494.313
589.906	9511.809
590.034	9442.139
590.163	9512.000
590.291	9573.904
590.419	9571.235
590.547	9628.443
590.675	9642.617
590.803	9633.191
590.931	9634.696
591.059	9614.757
591.188	9562.330
591.316	9527.417
591.444	9470.078
591.572	9439.357
591.700	9364.261
591.828	9345.130
591.956	9376.313
592.084	9396.304
592.213	9449.635
592.341	9465.348
592.469	9513.843
592.597	9550.504
592.725	9597.209
592.853	9723.713
592.981	9807.730
593.109	9936.852
593.238	9934.217
593.366	10008.400
593.494	10129.339
593.622	10198.243
593.750	10265.235
593.878	10371.574
594.006	10357.296
594.134	10362.096
594.263	10416.348
594.391	10355.887
594.519	10384.087
594.647	10430.974
594.775	10394.939
594.903	10441.157
595.031	10481.487
595.159	10506.739
595.288	10524.939
595.416	10554.713
595.544	10577.113
595.672	10528.739
595.800	10674.200
595.928	10657.852
596.056	10721.052
596.184	10738.974
596.313	10869.426
596.441	10792.322
596.569	10834.035
596.697	10854.765
596.825	10860.487
596.953	10933.000
597.081	11011.652
597.209	11020.774
597.338	11037.139
597.466	11105.070
597.594	11112.200
597.722	11274.470
597.850	11224.122
597.978	11323.826
598.106	11429.461
598.234	11420.426
598.363	11384.652
598.491	11558.339
598.619	11497.609
598.747	11565.139
598.875	11677.035
599.003	11709.957
599.131	11784.400
599.259	11800.061
599.388	11829.687
599.516	11919.296
599.644	11974.713
599.772	12057.713
599.900	12059.217
600.028	12080.113
600.156	12202.409
600.284	12184.496
600.413	12287.339
600.541	12365.643
600.669	12466.930
600.797	12422.974
600.925	12522.635
601.053	12572.843
601.181	12636.626
601.309	12609.043
601.438	12697.339
601.566	12747.678
601.694	12804.443
601.822	13017.991
601.950	12890.661
602.078	12958.217
602.206	13073.226
602.334	13089.974
602.463	13105.417
602.591	13213.139
602.719	13164.617
602.847	13376.991
602.975	13284.939
603.103	13369.157
603.231	13382.478
603.359	13389.635
603.488	13392.539
603.616	13463.330
603.744	13510.148
603.872	13558.417
604.000	13566.270
604.128	13596.078
604.256	13640.930
604.384	13739.043
604.513	13815.374
604.641	13862.722
604.769	13940.052
604.897	13872.539
605.025	13906.209
605.153	13968.078
605.281	14036.070
605.409	14031.052
605.538	14057.061
605.666	14114.278
605.794	14185.661
605.922	14229.087
606.050	14242.530
606.178	14326.965
606.306	14313.687
606.434	14401.835
606.563	14409.757
606.691	14447.426
606.819	14493.148
606.947	14487.991
607.075	14519.278
607.203	14578.409
607.331	14598.800
607.459	14664.922
607.588	14692.383
607.716	14757.217
607.844	14772.209
607.972	14839.009
608.100	14812.887
608.228	14854.557
608.356	14903.548
608.484	14909.600
608.613	15016.609
608.741	15032.252
608.869	15115.722
608.997	15202.678
609.125	15198.461
609.253	15241.713
609.381	15258.235
609.509	15254.122
609.638	15356.652
609.766	15352.383
609.894	15423.965
610.022	15445.843
610.150	15573.061
610.278	15497.652
610.406	15546.217
610.534	15563.339
610.663	15627.104
610.791	15757.852
610.919	15706.070
611.047	15828.530
611.175	15811.870
611.303	15930.809
611.431	15941.261
611.559	15997.991
611.688	16021.435
611.816	16057.226
611.944	16108.035
612.072	16165.565
612.200	16226.417
612.328	16372.417
612.456	16302.809
612.584	16569.000
612.713	16515.478
612.841	16559.122
612.969	16562.513
613.097	16642.078
613.225	16704.704
613.353	16775.000
613.481	16821.922
613.609	16888.339
613.738	16936.113
613.866	17052.287
613.994	17075.304
614.122	17199.157
614.250	17188.974
614.378	17321.861
614.506	17425.148
614.634	17537.843
614.763	17566.670
614.891	17684.261
615.019	17670.365
615.147	17746.652
615.275	17792.913
615.403	17855.243
615.531	17964.948
615.659	18024.800
615.788	18123.035
615.916	18280.922
616.044	18256.939
616.172	18460.087
616.300	18387.730
616.428	18565.600
616.556	18589.391
616.684	18640.383
616.813	18749.852
616.941	18828.261
617.069	18874.670
617.197	19136.243
617.325	19073.643
617.453	19146.739
617.581	19251.974
617.709	19252.643
617.838	19380.183
617.966	19466.983
618.094	19532.930
618.222	19673.435
618.350	19806.487
618.478	19789.557
618.606	19972.035
618.734	19963.217
618.863	19999.974
618.991	20002.383
619.119	20090.957
619.247	20165.348
619.375	20284.687
619.503	20386.365
619.631	20591.157
619.759	20530.643
619.888	20615.730
620.016	20729.713
620.144	20838.591
620.272	20869.043
620.400	20980.704
620.528	21004.487
620.656	21233.365
620.784	21228.783
620.913	21352.896
621.041	21476.191
621.169	21505.930
621.297	21591.426
621.425	21636.435
621.553	21739.470
621.681	21850.252
621.809	21921.539
621.938	22023.722
622.066	22094.991
622.194	22139.278
622.322	22212.043
622.450	22285.591
622.578	22336.243
622.706	22360.330
622.834	22443.443
622.963	22540.939
623.091	22515.287
623.219	22597.939
623.347	22659.217
623.475	22766.835
623.603	22804.696
623.731	22876.287
623.859	22976.026
623.988	23068.896
624.116	23124.635
624.244	23220.539
624.372	23274.400
624.500	23337.374
624.628	23381.383
624.756	23453.974
624.884	23598.226
625.013	23765.713
625.141	23677.070
625.269	23769.174
625.397	23940.626
625.525	24095.991
625.653	24033.261
625.781	24191.374
625.909	24109.339
626.038	24214.548
626.166	24239.365
626.294	24303.643
626.422	24388.148
626.550	24545.730
626.678	24580.878
626.806	24583.417
626.934	24670.130
627.063	24708.991
627.191	24795.661
627.319	24854.896
627.447	24960.757
627.575	24995.148
627.703	25090.783
627.831	25149.687
627.959	25208.713
628.088	25291.374
628.216	25413.157
628.344	25364.243
628.472	25467.913
628.600	25592.661
628.728	25593.000
628.856	25663.661
628.984	25696.904
629.113	25748.348
629.241	25784.148
629.369	25792.896
629.497	25857.452
629.625	25919.174
629.753	25907.974
629.881	25928.452
630.009	26080.148
630.138	26149.635
630.266	26240.304
630.394	26354.565
630.522	26377.070
630.650	26174.478
630.778	26194.070
630.906	26178.270
631.034	26147.200
631.163	26316.348
631.291	26335.122
631.419	26310.148
631.547	26377.957
631.675	26391.565
631.803	26452.548
631.931	26544.913
632.059	26578.652
632.188	26556.070
632.316	26694.374
632.444	26731.391
632.572	26764.200
632.700	26885.391
632.828	26958.722
632.956	26967.322
633.084	26998.983
633.213	27048.565
633.341	27047.261
633.469	27049.426
633.597	27101.609
633.725	27159.696
633.853	27212.226
633.981	27229.104
634.109	27477.374
634.238	27367.261
634.366	27430.278
634.494	27545.304
634.622	27600.670
634.750	27579.504
634.878	27700.722
635.006	27731.887
635.134	27750.948
635.263	27881.843
635.391	27897.139
635.519	27930.209
635.647	28069.409
635.775	28087.104
635.903	28211.365
636.031	28208.800
636.159	28307.209
636.288	28413.026
636.416	28535.704
636.544	28550.504
636.672	28603.504
636.800	28720.017
636.928	28765.522
637.056	29012.843
637.184	28933.791
637.313	29000.243
637.441	29067.904
637.569	29263.513
637.697	29309.496
637.825	29374.026
637.953	29542.722
638.081	29622.878
638.209	29761.278
638.338	29803.748
638.466	29956.243
638.594	30028.504
638.722	30098.791
638.850	30196.365
638.978	30214.183
639.106	30282.791
639.234	30349.948
639.363	30503.426
639.491	30521.861
639.619	30667.330
639.747	30753.748
639.875	30812.304
640.003	30968.922
640.131	31109.348
640.259	31170.617
640.388	31228.061
640.516	31256.322
640.644	31329.757
640.772	31493.122
640.900	31484.261
641.028	31538.843
641.156	31590.009
641.284	31771.435
641.413	31961.530
641.541	31944.061
641.669	32033.957
641.797	32164.783
641.925	32176.270
642.053	32385.243
642.181	32347.478
642.309	32426.757
642.438	32517.843
642.566	32579.617
642.694	32770.496
642.822	32728.835
642.950	32805.757
643.078	33000.843
643.206	32924.313
643.334	32996.026
643.463	33100.591
643.591	33122.304
643.719	33180.722
643.847	33226.348
643.975	33291.157
644.103	33342.452
644.231	33485.487
644.359	33489.374
644.488	33554.904
644.616	33569.643
644.744	33551.783
644.872	33605.470
645.000	33674.078
645.128	33626.270
645.256	33785.026
645.384	33802.148
645.513	33822.965
645.641	33884.957
645.769	33934.304
645.897	34034.600
646.025	34017.070
646.153	34058.878
646.281	34157.365
646.409	34169.226
646.538	34312.061
646.666	34248.122
646.794	34264.930
646.922	34293.461
647.050	34333.374
647.178	34315.400
647.306	34449.878
647.434	34275.643
647.563	34333.183
647.691	34341.200
647.819	34444.209
647.947	34426.661
648.075	34490.148
648.203	34493.783
648.331	34572.652
648.459	34489.965
648.588	34537.835
648.716	34613.661
648.844	34562.400
648.972	34601.470
649.100	34617.757
649.228	34614.852
649.356	34670.852
649.484	34657.591
649.613	34770.887
649.741	34718.243
649.869	34657.200
649.997	34759.887
650.125	34800.557
650.253	34776.530
650.381	34766.374
650.509	34733.191
650.638	34826.809
650.766	34922.252
650.894	34867.226
651.022	34808.835
651.150	34797.487
651.278	34890.748
651.406	34905.870
651.534	34908.078
651.663	34939.313
651.791	35188.270
651.919	35123.339
652.047	35156.087
652.175	35159.678
652.303	35213.948
652.431	35244.957
652.559	35305.235
652.688	35287.748
652.816	35361.774
652.944	35220.409
653.072	35252.478
653.200	35219.591
653.328	35308.913
653.456	35276.991
653.584	35369.296
653.713	35435.296
653.841	35431.991
653.969	35465.696
654.097	35476.661
654.225	35588.678
654.353	35566.252
654.481	35591.322
654.609	35608.687
654.738	35667.670
654.866	35627.270
654.994	35716.913
655.122	35759.278
655.250	35729.948
655.378	35569.426
655.506	35699.435
655.634	35704.800
655.763	35578.817
655.891	35690.443
656.019	35642.339
656.147	35655.287
656.275	35684.557
656.403	35659.591
656.531	35689.078
656.659	35698.243
656.788	35714.670
656.916	35736.296
657.044	35753.948
657.172	35743.235
657.300	35896.591
657.428	35745.078
657.556	35779.817
657.684	35718.504
657.813	35708.991
657.941	35718.504
658.069	35637.913
658.197	35645.165
658.325	35731.400
658.453	35636.452
658.581	35612.713
658.709	35618.800
658.838	35730.896
658.966	35625.687
659.094	35636.374
659.222	35622.409
659.350	35543.104
659.478	35637.426
659.606	35692.313
659.734	35666.357
659.863	35565.470
659.991	35584.096
660.119	35620.809
660.247	35787.670
660.375	35618.226
660.503	35635.104
660.631	35727.904
660.759	35658.930
660.888	35679.400
661.016	35667.757
661.144	35597.391
661.272	35757.635
661.400	35671.548
661.528	35731.487
661.656	35739.383
661.784	35769.957
661.913	35829.522
662.041	35917.478
662.169	35836.261
662.297	36087.226
662.425	36014.843
662.553	36111.800
662.681	36044.183
662.809	36083.174
662.938	36041.200
663.066	36128.678
663.194	36131.243
663.322	36178.243
663.450	36242.548
663.578	36242.252
663.706	36385.817
663.834	36338.139
663.963	36331.409
664.091	36347.643
664.219	36449.678
664.347	36513.278
664.475	36578.548
664.603	36474.722
664.731	36442.304
664.859	36514.609
664.988	36552.278
665.116	36503.887
665.244	36559.157
665.372	36582.748
665.500	36687.643
665.628	36664.043
665.756	36650.696
665.884	36664.270
666.013	36673.130
666.141	36749.991
666.269	36783.704
666.397	36784.530
666.525	36842.930
666.653	36904.583
666.781	37002.009
666.909	37005.113
667.038	37130.461
667.166	37126.939
667.294	37144.878
667.422	37131.374
667.550	36982.383
667.678	36982.643
667.806	36995.217
667.934	36915.322
668.063	36833.800
668.191	36909.696
668.319	36963.843
668.447	36930.974
668.575	37042.409
668.703	37024.504
668.831	37079.452
668.959	37017.391
669.088	37141.739
669.216	37005.643
669.344	36972.922
669.472	37007.452
669.600	36945.861
669.728	37039.426
669.856	37016.765
669.984	37006.504
670.113	36973.296
670.241	36944.070
670.369	36916.974
670.497	36860.296
670.625	36781.304
670.753	37007.243
670.881	37005.435
671.009	36804.983
671.138	36728.626
671.266	36600.409
671.394	36487.130
671.522	36459.504
671.650	36328.017
671.778	36340.191
671.906	36260.696
672.034	36312.400
672.163	36232.974
672.291	36300.183
672.419	36255.957
672.547	36215.200
672.675	36183.148
672.803	36047.435
672.931	36036.652
673.059	35969.800
673.188	35836.678
673.316	35649.861
673.444	35616.113
673.572	35607.530
673.700	35424.183
673.828	35431.730
673.956	35330.435
674.084	35267.452
674.213	35224.574
674.341	35137.096
674.469	35050.696
674.597	35042.739
674.725	35102.861
674.853	34911.722
674.981	34900.800
675.109	34796.557
675.238	34624.826
675.366	34538.835
675.494	34438.913
675.622	34407.191
675.750	34347.513
675.878	34203.000
676.006	34182.374
676.134	34163.504
676.263	34147.417
676.391	34054.183
676.519	34028.165
676.647	34065.922
676.775	33897.330
676.903	34003.330
677.031	33798.826
677.159	33779.104
677.288	33953.826
677.416	33730.183
677.544	33699.843
677.672	33625.678
677.800	33517.548
677.928	33408.470
678.056	33497.409
678.184	33365.957
678.313	33359.496
678.441	33198.617
678.569	33372.722
678.697	33157.904
678.825	33161.730
678.953	33183.348
679.081	33146.165
679.209	33096.183
679.338	33124.478
679.466	33031.739
679.594	33002.443
679.722	32937.626
679.850	32852.930
679.978	32839.565
680.106	32729.426
680.234	32740.017
680.363	32630.539
680.491	32522.104
680.619	32676.939
680.747	32511.417
680.875	32432.643
681.003	32324.965
681.131	32352.922
681.259	32279.409
681.388	32272.670
681.516	32321.252
681.644	32180.809
681.772	32266.104
681.900	32088.583
682.028	31978.070
682.156	31989.678
682.284	31850.078
682.413	31789.870
682.541	31737.591
682.669	31647.548
682.797	31597.800
682.925	31509.113
683.053	31516.687
683.181	31512.913
683.309	31444.887
683.438	31458.235
683.566	31455.548
683.694	31444.957
683.822	31367.757
683.950	31319.417
684.078	31198.687
684.206	31264.348
684.334	31180.487
684.463	31138.261
684.591	30960.139
684.719	30921.983
684.847	30817.330
684.975	30841.635
685.103	30719.009
685.231	30756.235
685.359	30592.817
685.488	30606.165
685.616	30502.400
685.744	30478.243
685.872	30436.078
686.000	30395.435
686.128	30297.896
686.256	30233.661
686.384	30172.209
686.513	30058.617
686.641	29972.800
686.769	29913.304
686.897	29872.600
687.025	29734.296
687.153	29690.330
687.281	29538.652
687.409	29566.600
687.538	29496.365
687.666	29431.983
687.794	29341.383
687.922	29245.870
688.050	29132.252
688.178	29161.478
688.306	29143.591
688.434	28966.113
688.563	28874.374
688.691	28814.843
688.819	28805.861
688.947	28638.287
689.075	28578.696
689.203	28461.322
689.331	28300.452
689.459	28176.148
689.588	28053.957
689.716	27968.565
689.844	27846.800
689.972	27756.070
690.100	27612.557
690.228	27605.209
690.356	27459.043
690.484	27420.739
690.613	27281.991
690.741	27123.139
690.869	26999.670
690.997	26898.896
691.125	26966.278
691.253	26801.443
691.381	26545.078
691.509	26399.791
691.638	26234.791
691.766	26160.948
691.894	26024.887
692.022	25942.678
692.150	25803.643
692.278	25632.522
692.406	25517.617
692.534	25416.791
692.663	25332.991
692.791	25159.948
692.919	25094.017
693.047	24886.217
693.175	24787.070
693.303	24723.991
693.431	24466.826
693.559	24392.374
693.688	24343.296
693.816	24110.070
693.944	24016.070
694.072	23909.104
694.200	23826.904
694.328	23711.252
694.456	23596.148
694.584	23337.870
694.713	23230.730
694.841	23080.452
694.969	22986.461
695.097	22972.322
695.225	22694.130
695.353	22591.470
695.481	22405.052
695.609	22372.574
695.738	22205.461
695.866	22127.217
695.994	21951.443
696.122	21928.696
696.250	21640.922
696.378	21470.957
696.506	21251.348
696.634	21104.461
696.763	20896.757
696.891	20794.139
697.019	20682.104
697.147	20505.635
697.275	20307.913
697.403	20116.365
697.531	19974.635
697.659	19788.165
697.788	19738.809
697.916	19537.487
698.044	19420.557
698.172	19342.374
698.300	19276.930
698.428	19157.800
698.556	19052.452
698.684	19002.243
698.813	18864.652
698.941	18774.817
699.069	18559.383
699.197	18451.096
699.325	18280.104
699.453	18114.417
699.581	18116.000
699.709	17883.861
699.838	17717.522
699.966	17537.522
700.094	17426.513
700.222	17398.617
700.350	17200.991
700.478	17005.078
700.606	16854.096
700.734	16744.609
700.863	16517.965
700.991	16454.061
701.119	16294.583
701.247	16114.104
701.375	16017.913
701.503	15778.748
701.631	15633.687
701.759	15499.000
701.888	15344.817
702.016	15264.504
702.144	14962.948
702.272	14857.791
702.400	14720.948
702.528	14616.791
702.656	14515.374
702.784	14246.217
702.913	14139.113
703.041	13953.583
703.169	13904.217
703.297	13686.957
703.425	13513.557
703.553	13430.130
703.681	13284.635
703.809	13179.913
703.938	12977.078
704.066	12971.139
704.194	12755.287
704.322	12526.461
704.450	12412.548
704.578	12290.339
704.706	12195.313
704.834	12051.548
704.963	11902.235
705.091	11723.757
705.219	11644.078
705.347	11447.313
705.475	11346.183
705.603	11193.000
705.731	11088.078
705.859	10940.017
705.988	10849.000
706.116	10743.270
706.244	10569.791
706.372	10504.470
706.500	10306.426
706.628	10268.296
706.756	10107.765
706.884	9984.304
707.013	9886.391
707.141	9708.183
707.269	9688.861
707.397	9491.913
707.525	9355.948
707.653	9286.748
707.781	9178.922
707.909	9086.548
708.038	9010.070
708.166	8909.113
708.294	8784.278
708.422	8710.800
708.550	8634.035
708.678	8490.539
708.806	8473.009
708.934	8304.070
709.063	8223.365
709.191	8136.774
709.319	8007.626
709.447	7959.035
709.575	7802.061
709.703	7710.287
709.831	7694.035
709.959	7506.739
710.088	7469.461
710.216	7457.957
710.344	7268.583
710.472	7252.574
710.600	7217.861
710.728	7053.730
710.856	6945.043
710.984	6951.661
711.113	6819.157
711.241	6774.600
711.369	6707.948
711.497	6546.191
711.625	6482.939
711.753	6398.270
711.881	6344.026
712.009	6356.017
712.138	6231.591
712.266	6139.078
712.394	6063.374
712.522	5966.017
712.650	5913.443
712.778	5886.878
712.906	5814.078
713.034	5743.339
713.163	5661.539
713.291	5579.209
713.419	5517.139
713.547	5390.548
713.675	5324.496
713.803	5245.357
713.931	5177.991
714.059	5094.452
714.188	5058.887
714.316	4985.070
714.444	4906.835
714.572	4934.870
714.700	4805.948
714.828	4746.852
714.956	4664.722
715.084	4587.913
715.213	4532.130
715.341	4503.374
715.469	4408.209
715.597	4434.835
715.725	4273.626
715.853	4236.643
715.981	4183.643
716.109	4135.296
716.238	4065.096
716.366	4000.730
716.494	4001.513
716.622	3887.661
716.750	3821.313
716.878	3838.800
717.006	3725.652
717.134	3664.574
717.263	3602.304
717.391	3605.713
717.519	3505.000
717.647	3519.913
717.775	3406.165
717.903	3370.226
718.031	3302.548
718.159	3273.652
718.288	3240.357
718.416	3212.443
718.544	3166.530
718.672	3075.148
718.800	3048.043
718.928	3036.113
719.056	2933.591
719.184	2943.904
719.313	2827.565
719.441	2834.826
719.569	2727.087
719.697	2739.165
719.825	2725.461
719.953	2673.183
720.081	2589.843
720.209	2579.322
720.338	2526.070
720.466	2475.174
720.594	2460.852
720.722	2481.957
720.850	2404.504
720.978	2314.209
721.106	2269.887
721.234	2242.722
721.363	2208.122
721.491	2169.983
721.619	2124.609
721.747	2109.530
721.875	2106.391
722.003	2047.678
722.131	2038.391
722.259	1995.583
722.388	1996.739
722.516	1949.757
722.644	1933.583
722.772	1917.548
722.900	1879.748
723.028	1876.235
723.156	1817.104
723.284	1813.887
723.413	1783.739
723.541	1771.400
723.669	1708.817
723.797	1703.739
723.925	1672.400
724.053	1668.957
724.181	1643.296
724.309	1590.200
724.438	1578.643
724.566	1580.539
724.694	1546.183
724.822	1541.591
724.950	1499.243
725.078	1486.557
725.206	1471.278
725.334	1446.765
725.463	1421.652
725.591	1404.270
725.719	1376.191
725.847	1359.609
725.975	1360.270
726.103	1334.574
726.231	1312.861
726.359	1287.104
726.488	1284.913
726.616	1266.965
726.744	1237.226
726.872	1231.435
727.000	1215.322
727.128	1206.070
727.256	1182.096
727.384	1169.357
727.513	1163.870
727.641	1141.661
727.769	1128.557
727.897	1110.965
728.025	1099.496
728.153	1094.835
728.281	1075.226
728.409	1076.148
728.538	1055.391
728.666	1042.904
728.794	1021.974
728.922	1011.113
729.050	1003.583
729.178	991.939
729.306	970.861
729.434	971.052
729.563	950.591
729.691	942.948
729.819	937.139
729.947	919.339
730.075	911.783
730.203	897.957
730.331	894.565
730.459	867.513
730.588	877.061
730.716	839.226
730.844	837.313
730.972	838.739
731.100	829.913
731.228	827.052
731.356	825.696
731.484	807.878
731.613	791.757
731.741	785.670
731.869	777.730
731.997	782.130
732.125	764.565
732.253	762.130
732.381	755.261
732.509	749.922
732.638	735.383
732.766	728.017
732.894	723.443
733.022	715.730
733.150	706.878
733.278	695.157
733.406	688.287
733.534	671.974
733.663	665.530
733.791	659.530
733.919	660.904
734.047	645.383
734.175	633.696
734.303	626.000
734.431	627.278
734.559	617.461
734.688	610.443
734.816	593.035
734.944	590.452
735.072	589.687
735.200	582.200
735.328	569.096
735.456	567.774
735.584	573.609
735.713	562.974
735.841	552.400
735.969	546.270
736.097	536.930
736.225	530.722
736.353	536.200
736.481	523.635
736.609	519.774
736.738	518.861
736.866	498.487
736.994	506.043
737.122	498.783
737.250	499.713
737.378	488.017
737.506	478.304
737.634	481.504
737.763	469.783
737.891	471.461
738.019	466.252
738.147	464.835
738.275	452.983
738.403	451.826
738.531	440.878
738.659	440.139
738.788	435.478
738.916	431.965
739.044	422.809
739.172	415.678
739.300	411.443
739.428	404.722
739.556	405.530
739.684	402.278
739.813	406.948
739.941	402.930
740.069	391.670
740.197	386.896
740.325	381.948
740.453	380.443
740.581	365.852
740.709	368.600
740.838	363.409
740.966	362.861
741.094	353.139
741.222	356.661
741.350	350.774
741.478	351.513
741.606	340.835
741.734	341.070
741.863	344.243
741.991	341.565
742.119	333.757
742.247	334.270
742.375	328.452
742.503	325.383
742.631	321.330
742.759	315.061
742.888	314.522
743.016	309.426
743.144	301.852
743.272	307.948
743.400	301.843
743.528	299.583
743.656	300.374
743.784	296.852
743.913	286.991
744.041	284.600
744.169	288.600
744.297	291.226
744.425	289.539
744.553	280.287
744.681	281.217
744.809	272.339
744.938	272.287
745.066	268.870
745.194	265.017
745.322	269.922
745.450	268.591
745.578	263.809
745.706	259.296
745.834	256.609
745.963	265.774
746.091	250.409
746.219	250.704
746.347	249.591
746.475	253.270
746.603	250.696
746.731	248.461
746.859	245.122
746.988	237.217
747.116	245.009
747.244	239.191
747.372	236.974
747.500	229.913
747.628	237.513
747.756	238.087
747.884	233.496
748.013	229.800
748.141	229.896
748.269	228.870
748.397	229.930
748.525	225.252
748.653	227.330
748.781	223.583
748.909	226.461
749.038	223.322
749.166	222.157
749.294	224.026
749.422	222.226
749.550	219.417
749.678	219.078
749.806	210.530
749.934	217.391
750.063	212.939
750.191	210.183
750.319	205.626
750.447	215.496
750.575	205.930
750.703	213.817
750.831	214.504
750.959	202.313
751.088	197.948
751.216	201.713
751.344	193.730
751.472	199.983
751.600	203.861
751.728	199.313
751.856	198.130
751.984	190.939
752.113	196.513
752.241	191.243
752.369	199.661
752.497	191.217
752.625	196.452
752.753	186.826
752.881	192.904
753.009	188.226
753.138	182.504
753.266	190.617
753.394	193.730
753.522	191.843
753.650	191.826
753.778	195.487
753.906	183.026
754.034	189.348
754.163	181.304
754.291	179.130
754.419	191.557
754.547	177.983
754.675	177.722
754.803	186.009
754.931	179.052
755.059	180.017
755.188	177.843
755.316	175.765
755.444	180.600
755.572	181.191
755.700	174.165
755.828	172.913
755.956	171.157
756.084	175.913
756.213	169.817
756.341	170.191
756.469	177.530
756.597	173.913
756.725	175.183
756.853	203.626
756.981	213.652
757.109	193.565
757.238	168.165
757.366	165.452
757.494	167.087
757.622	169.887
757.750	161.130
757.878	158.887
758.006	175.287
758.134	170.183
758.263	163.026
758.391	173.722
758.519	162.957
758.647	167.287
758.775	161.113
758.903	165.339
759.031	162.417
759.159	161.452
759.288	156.383
759.416	157.965
759.544	162.809
759.672	164.930
759.800	161.235
759.928	159.409
760.056	162.930
760.184	171.800
760.313	159.826
760.441	156.583
760.569	165.626
760.697	158.165
760.825	156.139
760.953	151.626
761.081	152.348
761.209	155.670
761.338	153.426
761.466	158.530
761.594	153.365
761.722	155.504
761.850	152.409
761.978	155.530
762.106	157.322
762.234	153.565
762.363	153.252
762.491	150.374
762.619	152.191
762.747	153.843
762.875	153.722
763.003	158.965
763.131	154.130
763.259	151.435
763.388	147.600
763.516	143.496
763.644	159.687
763.772	149.635
763.900	155.565
764.028	148.139
764.156	146.843
764.284	152.000
764.413	154.200
764.541	154.765
764.669	152.470
764.797	151.548
764.925	156.226
765.053	146.339
765.181	151.696
765.309	146.183
765.438	146.452
765.566	147.313
765.694	145.983
765.822	158.748
765.950	143.617
766.078	152.643
766.206	143.739
766.334	150.304
766.463	144.704
766.591	145.209
766.719	145.183
766.847	143.478
766.975	156.235
767.103	150.965
767.231	147.896
767.359	146.157
767.488	141.704
767.616	149.270
767.744	146.861
767.872	141.391
768.000	144.330
768.128	141.661
768.256	146.217
768.384	157.009
768.513	147.261
768.641	142.626
768.769	146.957
768.897	143.817
769.025	142.478
769.153	138.739
769.281	137.661
769.409	140.765
769.538	144.443
769.666	134.965
769.794	147.122
769.922	136.565
770.050	141.374
770.178	141.791
770.306	136.296
770.434	142.548
770.563	141.270
770.691	134.348
770.819	137.504
770.947	140.861
771.075	139.313
771.203	137.113
771.331	139.391
771.459	141.948
771.588	138.791
771.716	140.991
771.844	141.113
771.972	134.670
772.100	141.052
772.228	139.026
772.356	135.983
772.484	138.400
772.613	134.565
772.741	135.287
772.869	130.070
772.997	138.522
773.125	137.348
773.253	140.357
773.381	135.078
773.509	135.861
773.638	138.383
773.766	130.765
773.894	140.348
774.022	138.513
774.150	146.191
774.278	139.078
774.406	136.322
774.534	130.330
774.663	142.800
774.791	137.148
774.919	129.930
775.047	131.713
775.175	133.035
775.303	135.365
775.431	132.609
775.559	135.687
775.688	136.417
775.816	134.835
775.944	131.513
776.072	133.400
776.200	134.174
776.328	129.252
776.456	133.722
776.584	128.165
776.713	135.330
776.841	132.487
776.969	133.817
777.097	132.591
777.225	129.583
777.353	134.000
777.481	146.261
777.609	132.026
777.738	135.626
777.866	134.391
777.994	134.122
778.122	131.809
778.250	130.904
778.378	142.252
778.506	144.783
778.634	133.687
778.763	131.748
778.891	134.130
779.019	129.017
779.147	126.026
779.275	128.478
779.403	133.287
779.531	140.130
779.659	133.626
779.788	127.322
779.916	130.704
780.044	129.809
780.172	134.287
780.300	129.496
780.428	135.896
780.556	128.609
780.684	137.035
780.813	129.583
780.941	128.713
781.069	126.009
781.197	130.113
781.325	131.348
781.453	135.304
781.581	128.522
781.709	128.391
781.838	135.704
781.966	133.417
782.094	124.165
782.222	132.365
782.350	125.626
782.478	126.496
782.606	126.287
782.734	123.409
782.863	127.391
782.991	127.391
783.119	134.400
783.247	128.809
783.375	132.896
783.503	126.252
783.631	133.078
783.759	127.904
783.888	128.557
784.016	134.443
784.144	123.000
784.272	128.165
784.400	128.896
784.528	128.713
784.656	129.800
784.784	129.617
784.913	129.139
785.041	141.435
785.169	128.722
785.297	124.965
785.425	124.957
785.553	126.983
785.681	124.739
785.809	123.774
785.938	123.087
786.066	126.017
786.194	131.991
786.322	125.835
786.450	124.713
786.578	126.800
786.706	126.374
786.834	124.000
786.963	126.991
787.091	124.617
787.219	124.757
787.347	126.861
787.475	130.635
787.603	126.287
787.731	126.991
787.859	130.409
787.988	124.557
788.116	122.722
788.244	124.113
788.372	123.904
788.500	122.791
788.628	122.826
788.756	133.374
788.884	125.304
789.013	124.322
789.141	125.070
789.269	122.313
789.397	128.800
789.525	122.870
789.653	122.983
789.781	125.748
789.909	126.783
790.038	127.104
790.166	123.200
790.294	123.357
790.422	124.957
790.550	119.704
790.678	117.957
790.806	121.948
790.934	119.365
791.063	127.704
791.191	122.609
791.319	121.243
791.447	127.409
791.575	118.070
791.703	118.400
791.831	132.183
791.959	124.513
792.088	148.878
792.216	124.304
792.344	135.643
792.472	120.843
792.600	133.461
792.728	133.070
792.856	128.739
792.984	122.809
793.113	126.878
793.241	124.696
793.369	131.730
793.497	121.600
793.625	118.948
793.753	129.504
793.881	127.478
794.009	122.696
794.138	124.243
794.266	127.391
794.394	122.409
794.522	130.530
794.650	122.722
794.778	126.574
794.906	120.191
795.034	121.626
795.163	118.809
795.291	124.000
795.419	118.791
795.547	120.322
795.675	120.461
795.803	125.374
795.931	124.139
796.059	121.765
796.188	123.565
796.316	122.504
796.444	127.496
796.572	123.026
796.700	121.443
796.828	124.052
796.956	128.443
797.084	128.426
797.213	126.983
797.341	120.957
797.469	121.983
797.597	124.122
797.725	121.609
797.853	118.174
797.981	119.348
798.109	123.800
798.238	125.191
798.366	129.887
798.494	116.504
798.622	118.539
798.750	118.183
798.878	115.017
799.006	119.191
799.134	127.400
799.263	131.357
799.391	121.765
799.519	117.191
799.647	117.757
799.775	118.574
799.903	118.661
800.031	126.670
800.159	123.783
800.288	118.174
800.416	118.530
800.544	117.287
800.672	121.400
800.800	118.939
800.928	124.948
801.056	118.096
801.184	123.800
801.313	122.904
801.441	126.235
801.569	120.574
801.697	117.157
801.825	116.713
801.953	118.235
802.081	124.913
802.209	116.139
802.338	125.009
802.466	120.139
802.594	119.304
802.722	120.130
802.850	122.670
802.978	119.235
803.106	118.913
803.234	120.635
803.363	126.513
803.491	123.226
803.619	124.417
803.747	126.339
803.875	123.270
804.003	120.974
804.131	120.078
804.259	120.426
804.388	118.730
804.516	130.696
804.644	116.626
804.772	119.670
804.900	121.278
805.028	120.826
805.156	129.287
805.284	119.957
805.413	122.513
805.541	120.104
805.669	126.148
805.797	121.948
805.925	120.774
806.053	121.130
806.181	118.861
806.309	123.974
806.438	121.609
806.566	117.896
806.694	127.826
806.822	124.165
806.950	122.209
807.078	118.078
807.206	121.348
807.334	117.200
807.463	125.304
807.591	122.287
807.719	119.591
807.847	127.748
807.975	117.348
808.103	118.583
808.231	127.261
808.359	119.609
808.488	120.061
808.616	123.913
808.744	117.183
808.872	117.861
809.000	125.574
809.128	127.078
809.256	123.243
809.384	121.748
809.513	127.435
809.641	121.243
809.769	128.817
809.897	126.896
810.025	128.991
810.153	124.278
810.281	124.826
810.409	119.104
810.538	121.670
810.666	124.887
810.794	123.043
810.922	120.113
811.050	123.313
811.178	122.835
811.306	129.852
811.434	124.452
811.563	128.026
811.691	131.809
811.819	129.287
811.947	132.774
812.075	122.313
812.203	128.496
812.331	122.061
812.459	121.183
812.588	134.357
812.716	125.096
812.844	122.557
812.972	126.496
813.100	130.270
813.228	138.835
813.356	137.626
813.484	123.139
813.613	123.800
813.741	130.391
813.869	127.609
