spectrometer_wei?lichtspektrum_at_650.00nm_cut_at_1436.50Y_01.dat
02.05.2022
13:46:56
cut middle at Y: 1436.50
top cursor: 1494 down cursor: 1379 mean of: 115 lines , 2560 datapoints
wavelength(nm)	intensity[arb. units]
485.997	4716.722
486.125	4369.609
486.253	4293.757
486.381	4302.791
486.510	4351.574
486.638	4431.826
486.766	4380.348
486.894	4412.113
487.022	4477.078
487.150	4461.243
487.278	4509.530
487.406	4543.643
487.535	4579.887
487.663	4652.287
487.791	4628.391
487.919	4668.330
488.047	4673.617
488.175	4742.983
488.303	4776.583
488.431	4774.243
488.560	4847.026
488.688	4863.391
488.816	4864.130
488.944	4957.557
489.072	4942.348
489.200	4997.478
489.328	5033.600
489.456	5109.617
489.585	5109.496
489.713	5135.287
489.841	5125.565
489.969	5182.478
490.097	5230.965
490.225	5233.461
490.353	5286.183
490.481	5269.661
490.610	5316.635
490.738	5355.887
490.866	5495.148
490.994	5403.339
491.122	5518.617
491.250	5501.948
491.378	5481.296
491.506	5635.035
491.635	5573.339
491.763	5608.487
491.891	5620.409
492.019	5758.365
492.147	5698.652
492.275	5697.739
492.403	5695.896
492.531	5930.348
492.660	5846.357
492.788	5861.104
492.916	5918.409
493.044	5886.783
493.172	5953.217
493.300	5988.348
493.428	5981.400
493.556	6073.435
493.685	6090.278
493.813	6119.774
493.941	6152.348
494.069	6201.583
494.197	6212.626
494.325	6261.383
494.453	6466.113
494.581	6342.809
494.710	6387.635
494.838	6413.704
494.966	6502.165
495.094	6438.017
495.222	6548.496
495.350	6526.643
495.478	6555.287
495.606	6589.009
495.735	6618.304
495.863	6639.383
495.991	6667.835
496.119	6721.817
496.247	6769.296
496.375	6701.530
496.503	6757.243
496.631	6761.374
496.760	6758.687
496.888	6823.713
497.016	6829.148
497.144	6840.383
497.272	6858.730
497.400	6901.374
497.528	6878.783
497.656	6896.043
497.785	6904.800
497.913	6922.148
498.041	6945.783
498.169	6934.174
498.297	6951.226
498.425	7136.713
498.553	6993.565
498.681	7030.878
498.810	7114.661
498.938	7054.817
499.066	7069.183
499.194	7179.609
499.322	7196.774
499.450	7157.365
499.578	7200.026
499.706	7256.817
499.835	7282.722
499.963	7281.330
500.091	7349.122
500.219	7380.835
500.347	7407.287
500.475	7412.548
500.603	7440.104
500.731	7481.904
500.860	7504.557
500.988	7582.235
501.116	7549.939
501.244	7648.122
501.372	7696.730
501.500	7704.183
501.628	7743.896
501.756	7749.157
501.885	7810.296
502.013	7714.600
502.141	7841.070
502.269	7800.078
502.397	7965.200
502.525	7857.904
502.653	7955.113
502.781	7913.739
502.910	7922.904
503.038	7976.704
503.166	7992.843
503.294	7981.330
503.422	8008.104
503.550	8023.583
503.678	8014.461
503.806	8048.713
503.935	8063.696
504.063	8083.774
504.191	8127.191
504.319	8150.200
504.447	8108.913
504.575	8152.000
504.703	8234.243
504.831	8132.139
504.960	8122.365
505.088	8173.235
505.216	8270.783
505.344	8325.261
505.472	8263.565
505.600	8239.209
505.728	8328.043
505.856	8320.835
505.985	8376.696
506.113	8415.626
506.241	8431.304
506.369	8456.896
506.497	8451.791
506.625	8583.522
506.753	8533.200
506.881	8628.243
507.010	8615.209
507.138	8633.383
507.266	8766.061
507.394	8708.304
507.522	8819.043
507.650	8777.261
507.778	8827.209
507.906	8881.009
508.035	8892.209
508.163	8949.148
508.291	8971.157
508.419	9112.591
508.547	9099.330
508.675	9169.096
508.803	9112.252
508.931	9202.200
509.060	9188.417
509.188	9192.513
509.316	9214.339
509.444	9238.948
509.572	9400.270
509.700	9348.504
509.828	9408.461
509.956	9403.791
510.085	9415.435
510.213	9432.904
510.341	9439.409
510.469	9474.704
510.597	9486.852
510.725	9485.087
510.853	9550.583
510.981	9567.591
511.110	9490.000
511.238	9555.574
511.366	9576.226
511.494	9581.904
511.622	9582.139
511.750	9619.591
511.878	9680.843
512.006	9611.452
512.135	9679.661
512.263	9670.096
512.391	9718.157
512.519	9743.122
512.647	9708.809
512.775	9754.426
512.903	9766.357
513.031	9732.643
513.160	9737.443
513.288	9846.130
513.416	9735.591
513.544	9781.383
513.672	9761.774
513.800	9798.504
513.928	9814.704
514.056	9826.765
514.185	9817.843
514.313	9795.348
514.441	9928.217
514.569	9837.504
514.697	9862.304
514.825	9812.000
514.953	9797.574
515.081	9827.670
515.210	9866.704
515.338	9949.722
515.466	9861.661
515.594	9891.200
515.722	9856.843
515.850	9893.704
515.978	9878.757
516.106	9875.400
516.235	9881.209
516.363	9908.487
516.491	9905.957
516.619	9929.696
516.747	10028.417
516.875	10009.417
517.003	10020.635
517.131	10038.530
517.260	9999.104
517.388	10051.261
517.516	10103.174
517.644	10086.626
517.772	10216.861
517.900	10186.957
518.028	10237.009
518.156	10280.374
518.284	10269.765
518.413	10333.974
518.541	10416.122
518.669	10382.496
518.797	10422.826
518.925	10434.322
519.053	10508.452
519.181	10486.200
519.309	10511.557
519.438	10568.704
519.566	10622.678
519.694	10601.765
519.822	10712.104
519.950	10636.217
520.078	10699.896
520.206	10733.217
520.334	10764.374
520.463	10765.757
520.591	10762.983
520.719	10796.870
520.847	10845.696
520.975	10816.870
521.103	10891.304
521.231	10861.391
521.359	11011.226
521.488	10910.678
521.616	10947.452
521.744	10867.270
521.872	10958.722
522.000	10865.470
522.128	10894.357
522.256	10915.017
522.384	10918.043
522.513	10911.417
522.641	10909.235
522.769	10972.461
522.897	11007.835
523.025	10987.313
523.153	10970.878
523.281	11040.096
523.409	10962.235
523.538	11016.722
523.666	10962.174
523.794	11048.783
523.922	11059.843
524.050	11011.765
524.178	11067.122
524.306	11088.417
524.434	11146.226
524.563	11151.174
524.691	11293.617
524.819	11139.504
524.947	11190.661
525.075	11161.800
525.203	11218.652
525.331	11268.800
525.459	11396.557
525.588	11309.043
525.716	11428.922
525.844	11419.017
525.972	11463.252
526.100	11473.739
526.228	11534.070
526.356	11505.939
526.484	11617.504
526.613	11564.635
526.741	11686.235
526.869	11692.704
526.997	11784.052
527.125	11767.896
527.253	11784.817
527.381	11863.539
527.509	11817.600
527.638	11923.783
527.766	12024.983
527.894	12011.409
528.022	12079.400
528.150	12026.748
528.278	12122.548
528.406	12119.452
528.534	12119.939
528.663	12161.939
528.791	12279.183
528.919	12229.009
529.047	12358.530
529.175	12222.374
529.303	12302.670
529.431	12273.252
529.559	12339.774
529.688	12320.939
529.816	12330.939
529.944	12420.304
530.072	12323.096
530.200	12352.609
530.328	12402.617
530.456	12387.130
530.584	12391.078
530.713	12433.061
530.841	12442.226
530.969	12461.548
531.097	12432.513
531.225	12447.443
531.353	12545.748
531.481	12456.835
531.609	12645.530
531.738	12459.339
531.866	12602.070
531.994	12569.096
532.122	12682.730
532.250	12541.087
532.378	12522.713
532.506	12544.043
532.634	12562.374
532.763	12528.096
532.891	12592.043
533.019	12575.017
533.147	12597.957
533.275	12544.496
533.403	12655.070
533.531	12659.104
533.659	12625.939
533.788	12649.052
533.916	12629.243
534.044	12739.878
534.172	12753.191
534.300	12758.035
534.428	12768.974
534.556	12975.035
534.684	12813.417
534.813	12786.783
534.941	12827.896
535.069	12859.443
535.197	12838.287
535.325	12871.261
535.453	12880.991
535.581	12986.930
535.709	12913.626
535.838	12948.052
535.966	12953.626
536.094	12998.835
536.222	13008.261
536.350	12969.600
536.478	12991.139
536.606	13049.739
536.734	13000.409
536.863	12996.400
536.991	13115.861
537.119	13101.035
537.247	13066.530
537.375	13232.609
537.503	13101.843
537.631	13082.417
537.759	13143.461
537.888	13093.391
538.016	13322.078
538.144	13189.330
538.272	13192.470
538.400	13253.304
538.528	13176.052
538.656	13222.522
538.784	13268.539
538.913	13353.139
539.041	13341.330
539.169	13316.357
539.297	13325.452
539.425	13432.974
539.553	13384.504
539.681	13494.209
539.809	13475.174
539.938	13445.078
540.066	13438.730
540.194	13518.617
540.322	13636.365
540.450	13604.270
540.578	13592.122
540.706	13593.783
540.834	13667.139
540.963	13717.930
541.091	13617.035
541.219	13603.435
541.347	13770.009
541.475	13704.026
541.603	13724.209
541.731	13679.913
541.859	13707.757
541.988	13736.287
542.116	13897.774
542.244	13762.765
542.372	13914.470
542.500	13733.609
542.628	13813.522
542.756	13740.078
542.884	13753.461
543.013	13761.452
543.141	13772.574
543.269	13768.026
543.397	13713.165
543.525	13721.730
543.653	13780.670
543.781	13680.583
543.909	13619.313
544.038	13728.243
544.166	13717.983
544.294	13813.852
544.422	13600.148
544.550	13675.478
544.678	13667.904
544.806	13609.557
544.934	13569.209
545.063	13656.391
545.191	13732.174
545.319	13593.096
545.447	13529.478
545.575	13531.461
545.703	13592.539
545.831	13571.017
545.959	13556.922
546.088	13575.504
546.216	13505.443
546.344	13560.504
546.472	13732.913
546.600	13601.365
546.728	13574.087
546.856	13597.070
546.984	13605.687
547.113	13697.678
547.241	13644.070
547.369	13742.478
547.497	13743.035
547.625	13742.696
547.753	13763.122
547.881	13757.461
548.009	13782.070
548.138	13857.148
548.266	13834.530
548.394	13933.183
548.522	13875.861
548.650	14085.974
548.778	14007.417
548.906	14012.913
549.034	14106.583
549.163	14018.000
549.291	14033.522
549.419	14081.113
549.547	14277.165
549.675	14154.243
549.803	14135.017
549.931	14149.539
550.059	14163.800
550.188	14248.557
550.316	14268.870
550.444	14299.357
550.572	14315.087
550.700	14322.948
550.828	14375.678
550.956	14319.261
551.084	14449.765
551.213	14390.426
551.341	14473.139
551.469	14462.730
551.597	14539.417
551.725	14556.043
551.853	14514.530
551.981	14543.435
552.109	14573.330
552.238	14616.443
552.366	14556.330
552.494	14597.365
552.622	14587.930
552.750	14647.974
552.878	14601.817
553.006	14686.096
553.134	14656.217
553.263	14590.287
553.391	14607.383
553.519	14785.530
553.647	14617.583
553.775	14628.313
553.903	14720.739
554.031	14653.800
554.159	14608.165
554.288	14673.157
554.416	14628.757
554.544	14654.713
554.672	14621.113
554.800	14579.296
554.928	14585.209
555.056	14559.139
555.184	14560.348
555.313	14558.017
555.441	14531.748
555.569	14541.930
555.697	14593.391
555.825	14523.878
555.953	14528.904
556.081	14492.713
556.209	14482.948
556.338	14533.513
556.466	14652.452
556.594	14498.852
556.722	14547.522
556.850	14547.896
556.978	14407.409
557.106	14462.852
557.234	14478.417
557.363	14509.957
557.491	14459.635
557.619	14492.870
557.747	14497.957
557.875	14462.861
558.003	14451.922
558.131	14455.574
558.259	14507.087
558.388	14413.357
558.516	14453.278
558.644	14441.087
558.772	14540.087
558.900	14424.435
559.028	14460.730
559.156	14464.348
559.284	14448.939
559.413	14475.252
559.541	14459.826
559.669	14526.791
559.797	14532.922
559.925	14503.104
560.053	14571.922
560.181	14455.470
560.309	14557.948
560.438	14544.452
560.566	14531.165
560.694	14443.939
560.822	14690.443
560.950	14551.930
561.078	14544.026
561.206	14695.426
561.334	14542.757
561.463	14549.209
561.591	14663.374
561.719	14537.870
561.847	14618.226
561.975	14586.078
562.103	14577.783
562.231	14606.417
562.359	14552.878
562.488	14626.896
562.616	14603.461
562.744	14661.530
562.872	14646.461
563.000	14605.243
563.128	14640.217
563.256	14630.470
563.384	14795.043
563.513	14617.557
563.641	14692.374
563.769	14733.026
563.897	14664.035
564.025	14686.939
564.153	14678.704
564.281	14792.922
564.409	14685.061
564.538	14688.557
564.666	14763.348
564.794	14810.835
564.922	14787.922
565.050	14836.983
565.178	14770.157
565.306	14813.261
565.434	14864.635
565.563	14947.922
565.691	14864.574
565.819	15022.035
565.947	14816.200
566.075	14856.513
566.203	14873.243
566.331	14835.278
566.459	14883.696
566.588	14888.409
566.716	14913.374
566.844	14904.496
566.972	14927.704
567.100	15020.565
567.228	15010.817
567.356	15068.670
567.484	15017.252
567.613	15051.487
567.741	15026.183
567.869	15025.070
567.997	15041.400
568.125	15109.861
568.253	15147.913
568.381	15076.470
568.509	15095.583
568.638	15109.678
568.766	15200.287
568.894	15190.000
569.022	15090.417
569.150	15212.052
569.278	15104.722
569.406	15238.200
569.534	15215.000
569.663	15172.548
569.791	15143.643
569.919	15193.687
570.047	15340.704
570.175	15172.304
570.303	15134.330
570.431	15115.887
570.559	15198.043
570.688	15290.774
570.816	15169.113
570.944	15145.783
571.072	15114.678
571.200	15046.426
571.328	15101.652
571.456	15092.330
571.584	15053.339
571.713	15022.826
571.841	15098.339
571.969	15209.852
572.097	15154.383
572.225	14965.870
572.353	14992.191
572.481	14916.670
572.609	14957.426
572.738	14905.713
572.866	14886.478
572.994	14892.487
573.122	14846.426
573.250	14892.661
573.378	14822.087
573.506	14850.730
573.634	14864.087
573.763	14773.330
573.891	14772.670
574.019	14827.574
574.147	14750.539
574.275	14735.617
574.403	14876.722
574.531	14716.896
574.659	14728.061
574.788	14714.104
574.916	14851.461
575.044	14729.922
575.172	14726.957
575.300	14723.791
575.428	14706.791
575.556	14694.391
575.684	14743.409
575.813	14718.783
575.941	14677.835
576.069	14700.313
576.197	14744.252
576.325	14732.130
576.453	14735.765
576.581	14706.670
576.709	14742.757
576.838	14773.783
576.966	14884.391
577.094	14953.104
577.222	14886.896
577.350	14857.748
577.478	14941.765
577.606	14917.591
577.734	14937.226
577.863	14959.635
577.991	15021.817
578.119	15077.330
578.247	15024.087
578.375	15128.800
578.503	15108.270
578.631	15096.322
578.759	15182.730
578.888	15313.957
579.016	15146.574
579.144	15215.635
579.272	15203.530
579.400	15286.513
579.528	15322.826
579.656	15411.765
579.784	15323.557
579.913	15354.643
580.041	15581.122
580.169	15405.583
580.297	15516.696
580.425	15519.878
580.553	15553.052
580.681	15574.122
580.809	15577.104
580.938	15551.548
581.066	15688.061
581.194	15649.217
581.322	15671.817
581.450	15767.600
581.578	15734.235
581.706	15760.009
581.834	15802.348
581.963	15791.878
582.091	15794.748
582.219	15845.104
582.347	15882.087
582.475	15867.200
582.603	15873.139
582.731	15977.609
582.859	15909.583
582.988	15933.130
583.116	15992.696
583.244	15962.226
583.372	15983.730
583.500	15936.148
583.628	16043.383
583.756	16004.296
583.884	15972.852
584.013	16080.339
584.141	15991.243
584.269	16041.678
584.397	16077.730
584.525	16018.548
584.653	16065.678
584.781	16077.217
584.909	16043.148
585.038	16063.113
585.166	16057.270
585.294	16119.617
585.422	16078.530
585.550	16100.157
585.678	16029.487
585.806	16117.226
585.934	16037.939
586.063	16086.270
586.191	16048.130
586.319	16094.913
586.447	16058.591
586.575	16051.652
586.703	16115.748
586.831	16029.835
586.959	16144.661
587.088	16085.930
587.216	16079.591
587.344	16091.261
587.472	16260.817
587.600	16049.313
587.728	16084.835
587.856	16057.130
587.984	16068.791
588.113	16112.600
588.241	16046.652
588.369	16091.061
588.497	16079.122
588.625	16055.643
588.753	16218.235
588.881	16097.452
589.009	16091.478
589.138	16125.374
589.266	16102.687
589.394	16123.243
589.522	16126.348
589.650	16222.922
589.778	16168.843
589.906	16218.600
590.034	16121.878
590.163	16157.965
590.291	16243.113
590.419	16177.939
590.547	16244.383
590.675	16205.443
590.803	16197.435
590.931	16153.417
591.059	16136.200
591.188	16067.243
591.316	15981.904
591.444	15991.887
591.572	16022.000
591.700	15916.365
591.828	15894.174
591.956	15864.165
592.084	15812.043
592.213	15825.104
592.341	15779.974
592.469	15799.357
592.597	15816.365
592.725	15744.661
592.853	15750.496
592.981	15821.000
593.109	15814.565
593.238	15728.991
593.366	15739.626
593.494	15749.591
593.622	15830.522
593.750	15828.487
593.878	15926.513
594.006	15878.617
594.134	15937.209
594.263	15995.287
594.391	15910.739
594.519	15994.417
594.647	16031.930
594.775	16015.443
594.903	16089.426
595.031	16132.365
595.159	16189.617
595.288	16213.452
595.416	16199.991
595.544	16215.113
595.672	16185.113
595.800	16289.174
595.928	16222.270
596.056	16258.087
596.184	16227.809
596.313	16459.991
596.441	16281.887
596.569	16310.939
596.697	16236.443
596.825	16227.904
596.953	16280.139
597.081	16323.687
597.209	16324.835
597.338	16375.304
597.466	16403.670
597.594	16382.722
597.722	16533.026
597.850	16448.078
597.978	16531.809
598.106	16609.835
598.234	16642.583
598.363	16567.487
598.491	16738.409
598.619	16655.165
598.747	16702.739
598.875	16829.765
599.003	16861.313
599.131	16932.591
599.259	16892.713
599.388	16860.296
599.516	17006.183
599.644	17044.226
599.772	17144.852
599.900	17092.435
600.028	17097.600
600.156	17208.957
600.284	17137.270
600.413	17172.878
600.541	17290.774
600.669	17338.417
600.797	17281.130
600.925	17359.339
601.053	17421.278
601.181	17449.017
601.309	17421.696
601.438	17443.843
601.566	17448.800
601.694	17546.661
601.822	17733.226
601.950	17554.470
602.078	17582.435
602.206	17688.391
602.334	17620.922
602.463	17636.217
602.591	17712.322
602.719	17647.678
602.847	17874.070
602.975	17664.487
603.103	17709.991
603.231	17767.296
603.359	17746.096
603.488	17766.443
603.616	17744.687
603.744	17741.791
603.872	17755.191
604.000	17767.748
604.128	17767.209
604.256	17766.139
604.384	17838.400
604.513	17904.504
604.641	17811.035
604.769	17929.791
604.897	17779.087
605.025	17730.922
605.153	17794.730
605.281	17872.557
605.409	17809.296
605.538	17794.904
605.666	17806.896
605.794	17801.809
605.922	17773.043
606.050	17755.374
606.178	17780.617
606.306	17774.896
606.434	17801.035
606.563	17806.809
606.691	17810.722
606.819	17796.217
606.947	17717.000
607.075	17688.322
607.203	17687.817
607.331	17709.226
607.459	17704.357
607.588	17695.235
607.716	17747.365
607.844	17730.948
607.972	17715.174
608.100	17669.557
608.228	17655.070
608.356	17651.148
608.484	17640.157
608.613	17657.243
608.741	17605.200
608.869	17624.461
608.997	17660.217
609.125	17660.817
609.253	17616.852
609.381	17602.730
609.509	17615.591
609.638	17625.157
609.766	17605.504
609.894	17635.217
610.022	17526.087
610.150	17665.096
610.278	17570.870
610.406	17544.243
610.534	17559.183
610.663	17538.504
610.791	17676.678
610.919	17541.722
611.047	17603.313
611.175	17524.522
611.303	17563.687
611.431	17556.409
611.559	17635.748
611.688	17562.304
611.816	17541.530
611.944	17561.583
612.072	17579.965
612.200	17649.652
612.328	17660.826
612.456	17601.817
612.584	17829.357
612.713	17607.357
612.841	17682.861
612.969	17617.287
613.097	17661.626
613.225	17709.922
613.353	17719.522
613.481	17692.270
613.609	17736.157
613.738	17677.609
613.866	17833.965
613.994	17795.374
614.122	17810.304
614.250	17838.235
614.378	17829.400
614.506	17885.904
614.634	17908.504
614.763	17945.652
614.891	17955.400
615.019	18013.661
615.147	18068.817
615.275	18033.522
615.403	18074.391
615.531	18144.609
615.659	18168.209
615.788	18179.391
615.916	18275.930
616.044	18209.957
616.172	18378.426
616.300	18207.000
616.428	18350.070
616.556	18299.652
616.684	18287.687
616.813	18322.122
616.941	18375.270
617.069	18327.843
617.197	18584.887
617.325	18493.400
617.453	18488.052
617.581	18555.322
617.709	18494.365
617.838	18559.965
617.966	18614.870
618.094	18591.287
618.222	18624.591
618.350	18734.017
618.478	18663.435
618.606	18808.470
618.734	18720.696
618.863	18783.922
618.991	18709.113
619.119	18807.461
619.247	18748.539
619.375	18756.278
619.503	18840.583
619.631	18953.070
619.759	18831.965
619.888	18811.009
620.016	18852.435
620.144	18885.757
620.272	18828.626
620.400	18908.191
620.528	18901.000
620.656	19009.061
620.784	18885.452
620.913	18898.070
621.041	18926.722
621.169	18952.304
621.297	18962.026
621.425	18943.000
621.553	18947.374
621.681	19061.652
621.809	19014.609
621.938	19014.696
622.066	19075.017
622.194	19079.861
622.322	19094.548
622.450	19091.887
622.578	19120.852
622.706	19107.991
622.834	19134.565
622.963	19166.087
623.091	19162.078
623.219	19150.643
623.347	19266.774
623.475	19189.426
623.603	19179.435
623.731	19164.626
623.859	19183.826
623.988	19196.626
624.116	19200.287
624.244	19251.930
624.372	19210.722
624.500	19225.035
624.628	19199.939
624.756	19277.730
624.884	19361.861
625.013	19451.130
625.141	19253.339
625.269	19239.583
625.397	19330.226
625.525	19404.843
625.653	19248.183
625.781	19402.800
625.909	19276.487
626.038	19303.061
626.166	19302.591
626.294	19229.226
626.422	19335.757
626.550	19319.957
626.678	19336.261
626.806	19254.104
626.934	19287.252
627.063	19243.487
627.191	19228.704
627.319	19232.835
627.447	19188.626
627.575	19179.400
627.703	19170.339
627.831	19173.191
627.959	19161.722
628.088	19225.365
628.216	19239.157
628.344	19095.757
628.472	19081.904
628.600	19254.687
628.728	19052.304
628.856	19002.791
628.984	19002.035
629.113	18991.522
629.241	18962.739
629.369	18940.643
629.497	18932.704
629.625	18875.435
629.753	18815.348
629.881	18775.783
630.009	18769.296
630.138	18803.687
630.266	18762.983
630.394	18931.930
630.522	18879.339
630.650	18676.739
630.778	18655.043
630.906	18632.652
631.034	18544.243
631.163	18669.870
631.291	18620.383
631.419	18495.670
631.547	18444.339
631.675	18376.296
631.803	18338.157
631.931	18456.591
632.059	18464.261
632.188	18310.635
632.316	18285.791
632.444	18356.226
632.572	18225.235
632.700	18170.817
632.828	18144.548
632.956	18078.817
633.084	18108.783
633.213	18058.948
633.341	18002.426
633.469	18032.426
633.597	18015.391
633.725	18007.948
633.853	17988.722
633.981	17951.157
634.109	18129.591
634.238	17962.539
634.366	17908.809
634.494	17922.713
634.622	17869.974
634.750	17881.174
634.878	17872.939
635.006	17846.687
635.134	17781.157
635.263	17897.852
635.391	17758.322
635.519	17761.417
635.647	17823.191
635.775	17804.209
635.903	17872.617
636.031	17707.852
636.159	17693.313
636.288	17701.609
636.416	17705.478
636.544	17728.496
636.672	17691.287
636.800	17693.165
636.928	17637.557
637.056	17786.191
637.184	17675.574
637.313	17627.539
637.441	17649.130
637.569	17755.478
637.697	17744.565
637.825	17621.635
637.953	17710.635
638.081	17628.539
638.209	17724.574
638.338	17677.817
638.466	17695.878
638.594	17654.070
638.722	17700.252
638.850	17767.661
638.978	17703.078
639.106	17682.070
639.234	17690.452
639.363	17690.957
639.491	17677.026
639.619	17764.626
639.747	17737.843
639.875	17719.383
640.003	17756.035
640.131	17715.104
640.259	17686.157
640.388	17776.861
640.516	17732.122
640.644	17762.609
640.772	17795.887
640.900	17692.643
641.028	17720.400
641.156	17655.739
641.284	17682.583
641.413	17787.061
641.541	17725.200
641.669	17707.522
641.797	17764.774
641.925	17635.800
642.053	17843.861
642.181	17650.287
642.309	17613.061
642.438	17655.635
642.566	17631.383
642.694	17715.722
642.822	17584.374
642.950	17574.757
643.078	17620.991
643.206	17516.009
643.334	17559.504
643.463	17558.974
643.591	17512.061
643.719	17515.522
643.847	17446.817
643.975	17472.530
644.103	17403.843
644.231	17467.061
644.359	17410.591
644.488	17408.913
644.616	17360.200
644.744	17341.696
644.872	17296.017
645.000	17385.087
645.128	17298.287
645.256	17263.400
645.384	17252.391
645.513	17221.965
645.641	17160.191
645.769	17162.417
645.897	17196.548
646.025	17138.461
646.153	17031.287
646.281	17105.661
646.409	16997.365
646.538	17072.226
646.666	16958.652
646.794	16894.757
646.922	16873.574
647.050	16853.183
647.178	16806.096
647.306	17014.843
647.434	16764.583
647.563	16697.522
647.691	16726.148
647.819	16770.939
647.947	16614.487
648.075	16601.939
648.203	16568.609
648.331	16513.904
648.459	16507.713
648.588	16442.113
648.716	16503.939
648.844	16369.678
648.972	16343.565
649.100	16300.270
649.228	16282.104
649.356	16278.470
649.484	16233.574
649.613	16257.226
649.741	16176.835
649.869	16149.296
649.997	16167.739
650.125	16132.174
650.253	16049.009
650.381	16053.852
650.509	15945.078
650.638	15950.487
650.766	16073.965
650.894	15917.713
651.022	15813.678
651.150	15870.643
651.278	15833.452
651.406	15776.522
651.534	15744.652
651.663	15697.930
651.791	15862.461
651.919	15627.009
652.047	15644.861
652.175	15603.287
652.303	15570.339
652.431	15544.070
652.559	15529.504
652.688	15465.609
652.816	15541.296
652.944	15410.991
653.072	15410.278
653.200	15390.113
653.328	15363.583
653.456	15281.426
653.584	15406.000
653.713	15266.957
653.841	15263.548
653.969	15255.070
654.097	15186.157
654.225	15211.052
654.353	15181.765
654.481	15133.948
654.609	15160.148
654.738	15098.739
654.866	15056.791
654.994	15095.113
655.122	15058.713
655.250	15126.235
655.378	14865.470
655.506	14956.487
655.634	14988.383
655.763	14774.800
655.891	14770.304
656.019	14722.139
656.147	14700.522
656.275	14706.861
656.403	14655.539
656.531	14571.122
656.659	14581.504
656.788	14515.617
656.916	14450.157
657.044	14426.122
657.172	14431.548
657.300	14498.243
657.428	14338.548
657.556	14367.565
657.684	14212.748
657.813	14199.209
657.941	14141.626
658.069	14099.713
658.197	14084.322
658.325	14109.261
658.453	13973.583
658.581	13982.287
658.709	13888.096
658.838	13957.087
658.966	13868.922
659.094	13825.739
659.222	13766.948
659.350	13763.452
659.478	13802.070
659.606	13750.313
659.734	13680.383
659.863	13538.783
659.991	13526.348
660.119	13533.017
660.247	13655.765
660.375	13446.261
660.503	13397.678
660.631	13464.261
660.759	13384.400
660.888	13382.652
661.016	13309.878
661.144	13272.687
661.272	13293.852
661.400	13216.330
661.528	13238.948
661.656	13186.557
661.784	13162.530
661.913	13129.522
662.041	13162.687
662.169	13043.591
662.297	13183.400
662.425	13067.800
662.553	13148.043
662.681	12989.861
662.809	13030.548
662.938	12914.530
663.066	12921.061
663.194	12947.348
663.322	12933.687
663.450	12916.548
663.578	12857.296
663.706	13025.478
663.834	12853.061
663.963	12828.643
664.091	12802.104
664.219	12825.600
664.347	12864.522
664.475	12880.461
664.603	12733.026
664.731	12668.435
664.859	12717.217
664.988	12713.965
665.116	12661.670
665.244	12683.609
665.372	12654.965
665.500	12693.583
665.628	12589.904
665.756	12582.548
665.884	12562.957
666.013	12544.722
666.141	12531.087
666.269	12499.983
666.397	12491.530
666.525	12463.948
666.653	12457.652
666.781	12520.183
666.909	12401.539
667.038	12422.426
667.166	12378.339
667.294	12334.383
667.422	12300.861
667.550	12303.017
667.678	12297.165
667.806	12275.843
667.934	12227.791
668.063	12244.017
668.191	12197.774
668.319	12239.000
668.447	12137.696
668.575	12164.896
668.703	12092.713
668.831	12087.539
668.959	12035.835
669.088	12201.261
669.216	12006.391
669.344	11962.061
669.472	11912.835
669.600	11898.539
669.728	11911.339
669.856	11823.687
669.984	11762.557
670.113	11729.061
670.241	11690.357
670.369	11689.817
670.497	11624.391
670.625	11590.704
670.753	11786.496
670.881	11744.330
671.009	11596.852
671.138	11552.817
671.266	11431.809
671.394	11413.026
671.522	11485.017
671.650	11325.304
671.778	11296.652
671.906	11282.687
672.034	11283.661
672.163	11183.991
672.291	11199.774
672.419	11213.026
672.547	11116.748
672.675	11032.922
672.803	11036.435
672.931	10988.539
673.059	10955.939
673.188	10891.974
673.316	10848.052
673.444	10855.974
673.572	10960.087
673.700	10756.496
673.828	10767.635
673.956	10676.096
674.084	10614.287
674.213	10645.530
674.341	10524.548
674.469	10476.409
674.597	10441.052
674.725	10534.435
674.853	10346.617
674.981	10381.426
675.109	10283.435
675.238	10230.487
675.366	10196.496
675.494	10159.470
675.622	10214.217
675.750	10165.835
675.878	10052.670
676.006	10035.774
676.134	10014.278
676.263	9953.426
676.391	9925.904
676.519	9890.000
676.647	9876.052
676.775	9777.096
676.903	9894.348
677.031	9735.557
677.159	9748.409
677.288	9866.017
677.416	9698.670
677.544	9625.087
677.672	9592.217
677.800	9562.930
677.928	9542.183
678.056	9565.296
678.184	9507.835
678.313	9525.148
678.441	9353.800
678.569	9578.696
678.697	9373.400
678.825	9326.791
678.953	9361.565
679.081	9313.000
679.209	9236.696
679.338	9292.513
679.466	9174.417
679.594	9181.591
679.722	9182.609
679.850	9089.539
679.978	9119.722
680.106	9069.365
680.234	9041.861
680.363	9059.461
680.491	9006.817
680.619	9131.783
680.747	8955.748
680.875	8949.826
681.003	8894.696
681.131	8932.496
681.259	8821.522
681.388	8843.461
681.516	8915.078
681.644	8758.843
681.772	8918.870
681.900	8715.878
682.028	8688.217
682.156	8707.826
682.284	8679.348
682.413	8683.174
682.541	8591.243
682.669	8570.696
682.797	8603.800
682.925	8566.817
683.053	8523.209
683.181	8507.009
683.309	8494.287
683.438	8461.304
683.566	8490.539
683.694	8466.235
683.822	8428.443
683.950	8394.861
684.078	8359.774
684.206	8440.730
684.334	8422.235
684.463	8475.209
684.591	8294.704
684.719	8287.800
684.847	8258.070
684.975	8297.183
685.103	8211.078
685.231	8303.965
685.359	8165.035
685.488	8152.017
685.616	8145.313
685.744	8107.635
685.872	8103.174
686.000	8138.974
686.128	8039.435
686.256	8038.270
686.384	8050.678
686.513	7988.539
686.641	8035.487
686.769	8009.704
686.897	8040.087
687.025	7917.330
687.153	7947.443
687.281	7861.183
687.409	7867.861
687.538	7835.339
687.666	7778.687
687.794	7760.365
687.922	7727.452
688.050	7667.426
688.178	7768.852
688.306	7757.296
688.434	7616.426
688.563	7571.000
688.691	7558.774
688.819	7650.643
688.947	7510.983
689.075	7535.757
689.203	7507.061
689.331	7425.096
689.459	7419.870
689.588	7375.565
689.716	7349.965
689.844	7356.113
689.972	7326.130
690.100	7275.922
690.228	7353.922
690.356	7239.139
690.484	7324.148
690.613	7185.574
690.741	7160.157
690.869	7119.330
690.997	7118.843
691.125	7298.861
691.253	7229.539
691.381	7029.870
691.509	6993.478
691.638	7003.739
691.766	7014.913
691.894	7019.870
692.022	6991.661
692.150	6957.539
692.278	6875.843
692.406	6874.365
692.534	6825.661
692.663	6793.713
692.791	6790.591
692.919	6744.835
693.047	6712.470
693.175	6697.304
693.303	6749.800
693.431	6630.557
693.559	6629.009
693.688	6673.922
693.816	6553.583
693.944	6565.817
694.072	6524.922
694.200	6525.591
694.328	6471.583
694.456	6511.930
694.584	6370.330
694.713	6421.904
694.841	6370.452
694.969	6342.652
695.097	6490.209
695.225	6276.922
695.353	6389.104
695.481	6255.887
695.609	6347.296
695.738	6241.435
695.866	6231.478
695.994	6177.887
696.122	6312.252
696.250	6207.391
696.378	6170.991
696.506	6099.748
696.634	6092.974
696.763	6040.496
696.891	6005.243
697.019	5990.252
697.147	6041.043
697.275	5942.643
697.403	5916.357
697.531	5935.148
697.659	5848.826
697.788	5971.183
697.916	5873.835
698.044	5881.583
698.172	5831.913
698.300	5896.922
698.428	5745.913
698.556	5704.313
698.684	5755.183
698.813	5702.096
698.941	5709.887
699.069	5641.104
699.197	5642.722
699.325	5585.600
699.453	5548.765
699.581	5678.157
699.709	5507.452
699.838	5479.304
699.966	5470.887
700.094	5522.652
700.222	5620.504
700.350	5525.878
700.478	5453.061
700.606	5434.130
700.734	5374.583
700.863	5324.913
700.991	5381.157
701.119	5301.670
701.247	5253.461
701.375	5327.539
701.503	5198.617
701.631	5191.113
701.759	5200.052
701.888	5191.235
702.016	5277.635
702.144	5127.643
702.272	5104.939
702.400	5098.600
702.528	5130.104
702.656	5156.417
702.784	4999.670
702.913	5010.774
703.041	4954.687
703.169	5044.365
703.297	4918.391
703.425	4869.878
703.553	4917.548
703.681	4899.661
703.809	4857.861
703.938	4767.104
704.066	4919.009
704.194	4778.817
704.322	4705.139
704.450	4694.452
704.578	4645.957
704.706	4709.983
704.834	4664.330
704.963	4653.183
705.091	4555.800
705.219	4582.070
705.347	4515.322
705.475	4472.452
705.603	4454.635
705.731	4465.070
705.859	4424.096
705.988	4431.852
706.116	4396.974
706.244	4343.983
706.372	4402.730
706.500	4299.087
706.628	4379.539
706.756	4319.609
706.884	4287.365
707.013	4304.835
707.141	4196.191
707.269	4256.078
707.397	4159.591
707.525	4142.226
707.653	4119.070
707.781	4117.043
707.909	4074.052
708.038	4045.774
708.166	4028.852
708.294	3996.452
708.422	4003.165
708.550	4004.417
708.678	3948.626
708.806	4030.191
708.934	3906.174
709.063	3956.365
709.191	3896.278
709.319	3885.930
709.447	3905.330
709.575	3846.061
709.703	3828.365
709.831	3865.557
709.959	3754.487
710.088	3798.139
710.216	3864.939
710.344	3738.748
710.472	3746.009
710.600	3789.522
710.728	3704.252
710.856	3672.322
710.984	3725.957
711.113	3661.470
711.241	3676.809
711.369	3721.452
711.497	3627.400
711.625	3619.426
711.753	3591.478
711.881	3581.252
712.009	3717.670
712.138	3627.217
712.266	3556.913
712.394	3537.191
712.522	3491.304
712.650	3546.826
712.778	3546.739
712.906	3499.139
713.034	3486.739
713.163	3481.800
713.291	3477.757
713.419	3484.748
713.547	3417.435
713.675	3404.026
713.803	3369.878
713.931	3377.617
714.059	3352.078
714.188	3334.417
714.316	3350.391
714.444	3329.478
714.572	3427.409
714.700	3319.530
714.828	3293.330
714.956	3269.304
715.084	3234.722
715.213	3255.183
715.341	3255.087
715.469	3225.678
715.597	3310.243
715.725	3169.913
715.853	3163.861
715.981	3150.635
716.109	3172.443
716.238	3129.635
716.366	3133.687
716.494	3204.452
716.622	3086.452
716.750	3093.296
716.878	3183.896
717.006	3069.887
717.134	3028.052
717.263	3020.417
717.391	3070.504
717.519	3001.452
717.647	3062.574
717.775	2969.165
717.903	2960.461
718.031	2927.774
718.159	2942.939
718.288	2953.052
718.416	2941.452
718.544	2880.870
718.672	2896.043
718.800	2875.322
718.928	2917.296
719.056	2834.548
719.184	2893.426
719.313	2810.000
719.441	2844.704
719.569	2762.087
719.697	2792.678
719.825	2843.217
719.953	2780.861
720.081	2732.191
720.209	2725.287
720.338	2716.174
720.466	2680.583
720.594	2688.643
720.722	2758.922
720.850	2689.791
720.978	2644.461
721.106	2643.617
721.234	2644.052
721.363	2613.800
721.491	2620.930
721.619	2605.122
721.747	2596.113
721.875	2608.043
722.003	2577.504
722.131	2569.600
722.259	2548.357
722.388	2544.809
722.516	2533.687
722.644	2527.739
722.772	2518.209
722.900	2496.617
723.028	2500.026
723.156	2462.087
723.284	2453.496
723.413	2454.183
723.541	2442.078
723.669	2419.983
723.797	2413.757
723.925	2400.296
724.053	2392.548
724.181	2378.678
724.309	2344.409
724.438	2335.487
724.566	2357.409
724.694	2324.122
724.822	2313.548
724.950	2301.426
725.078	2289.739
725.206	2291.357
725.334	2269.913
725.463	2242.704
725.591	2255.617
725.719	2232.070
725.847	2211.130
725.975	2205.739
726.103	2211.522
726.231	2187.643
726.359	2164.113
726.488	2192.087
726.616	2173.670
726.744	2156.713
726.872	2128.087
727.000	2128.139
727.128	2118.035
727.256	2101.904
727.384	2082.574
727.513	2089.991
727.641	2070.191
727.769	2068.557
727.897	2056.130
728.025	2055.113
728.153	2031.026
728.281	2028.270
728.409	2031.922
728.538	2006.965
728.666	2011.226
728.794	1988.991
728.922	1974.148
729.050	1983.583
729.178	1975.557
729.306	1941.774
729.434	1940.670
729.563	1941.678
729.691	1931.887
729.819	1943.878
729.947	1932.287
730.075	1916.896
730.203	1888.339
730.331	1905.530
730.459	1878.852
730.588	1867.130
730.716	1854.183
730.844	1837.322
730.972	1845.757
731.100	1847.513
731.228	1843.722
731.356	1841.983
731.484	1810.626
731.613	1808.183
731.741	1797.478
731.869	1788.974
731.997	1789.878
732.125	1774.330
732.253	1765.209
732.381	1750.730
732.509	1738.930
732.638	1738.461
732.766	1734.617
732.894	1739.183
733.022	1726.400
733.150	1712.348
733.278	1706.696
733.406	1696.713
733.534	1682.383
733.663	1678.374
733.791	1680.000
733.919	1673.417
734.047	1656.957
734.175	1644.852
734.303	1641.652
734.431	1637.357
734.559	1622.148
734.688	1620.852
734.816	1608.339
734.944	1608.904
735.072	1599.783
735.200	1593.913
735.328	1584.783
735.456	1585.461
735.584	1598.922
735.713	1571.078
735.841	1561.426
735.969	1571.826
736.097	1538.678
736.225	1541.009
736.353	1536.435
736.481	1525.000
736.609	1517.957
736.738	1509.600
736.866	1501.461
736.994	1487.957
737.122	1505.461
737.250	1479.539
737.378	1460.113
737.506	1474.452
737.634	1460.617
737.763	1451.983
737.891	1444.791
738.019	1444.322
738.147	1436.243
738.275	1418.322
738.403	1421.522
738.531	1415.809
738.659	1395.687
738.788	1384.922
738.916	1396.496
739.044	1389.643
739.172	1368.843
739.300	1370.843
739.428	1367.130
739.556	1365.443
739.684	1360.339
739.813	1353.148
739.941	1344.557
740.069	1338.513
740.197	1328.496
740.325	1329.357
740.453	1317.487
740.581	1305.530
740.709	1292.452
740.838	1288.600
740.966	1290.070
741.094	1278.009
741.222	1280.409
741.350	1265.565
741.478	1269.357
741.606	1256.078
741.734	1243.548
741.863	1244.104
741.991	1240.383
742.119	1231.583
742.247	1226.783
742.375	1222.948
742.503	1218.922
742.631	1206.913
742.759	1212.096
742.888	1207.670
743.016	1191.461
743.144	1166.904
743.272	1184.652
743.400	1174.678
743.528	1164.443
743.656	1162.887
743.784	1152.226
743.913	1149.139
744.041	1144.409
744.169	1142.713
744.297	1142.348
744.425	1132.957
744.553	1115.183
744.681	1120.983
744.809	1102.617
744.938	1100.670
745.066	1108.183
745.194	1099.313
745.322	1099.835
745.450	1085.930
745.578	1084.948
745.706	1072.704
745.834	1074.078
745.963	1077.217
746.091	1060.209
746.219	1058.939
746.347	1056.896
746.475	1052.878
746.603	1048.087
746.731	1046.261
746.859	1039.217
746.988	1022.443
747.116	1034.574
747.244	1028.835
747.372	1025.270
747.500	1018.513
747.628	1009.957
747.756	1002.739
747.884	1003.609
748.013	993.826
748.141	997.722
748.269	988.730
748.397	993.252
748.525	982.304
748.653	973.122
748.781	970.574
748.909	969.783
749.038	969.626
749.166	962.513
749.294	953.757
749.422	950.757
749.550	953.626
749.678	945.026
749.806	945.791
749.934	939.835
750.063	942.904
750.191	924.183
750.319	923.078
750.447	930.661
750.575	914.722
750.703	912.957
750.831	909.339
750.959	902.687
751.088	898.591
751.216	897.357
751.344	887.913
751.472	894.991
751.600	885.765
751.728	878.687
751.856	876.939
751.984	869.270
752.113	876.322
752.241	869.713
752.369	865.026
752.497	856.696
752.625	861.713
752.753	849.835
752.881	849.522
753.009	843.191
753.138	847.861
753.266	839.887
753.394	837.391
753.522	836.643
753.650	830.904
753.778	828.835
753.906	819.191
754.034	809.461
754.163	817.026
754.291	804.061
754.419	816.487
754.547	798.791
754.675	801.087
754.803	803.904
754.931	794.991
755.059	795.052
755.188	781.574
755.316	780.157
755.444	784.591
755.572	778.643
755.700	775.217
755.828	765.965
755.956	763.965
756.084	760.670
756.213	756.174
756.341	760.061
756.469	746.939
756.597	750.878
756.725	753.765
756.853	735.696
756.981	745.870
757.109	733.643
757.238	723.087
757.366	730.322
757.494	718.965
757.622	718.148
757.750	719.104
757.878	705.522
758.006	715.026
758.134	708.157
758.263	699.626
758.391	706.000
758.519	697.617
758.647	697.617
758.775	693.826
758.903	677.948
759.031	684.470
759.159	679.087
759.288	682.487
759.416	675.157
759.544	668.843
759.672	672.200
759.800	670.252
759.928	667.374
760.056	665.217
760.184	656.913
760.313	657.043
760.441	649.757
760.569	645.270
760.697	647.739
760.825	639.374
760.953	642.417
761.081	636.217
761.209	636.922
761.338	635.374
761.466	630.704
761.594	619.809
761.722	626.270
761.850	620.843
761.978	611.061
762.106	615.009
762.234	616.948
762.363	606.035
762.491	596.765
762.619	605.487
762.747	603.765
762.875	603.887
763.003	601.652
763.131	584.078
763.259	590.278
763.388	581.339
763.516	584.661
763.644	584.852
763.772	580.765
763.900	578.852
764.028	572.374
764.156	571.817
764.284	568.052
764.413	560.504
764.541	563.261
764.669	559.035
764.797	558.296
764.925	561.800
765.053	547.174
765.181	557.461
765.309	542.226
765.438	547.374
765.566	537.304
765.694	540.557
765.822	540.696
765.950	537.783
766.078	533.922
766.206	530.878
766.334	530.200
766.463	523.530
766.591	524.374
766.719	527.826
766.847	519.452
766.975	519.322
767.103	515.896
767.231	520.565
767.359	518.061
767.488	512.391
767.616	503.183
767.744	512.913
767.872	501.461
768.000	502.183
768.128	503.548
768.256	501.913
768.384	492.078
768.513	492.643
768.641	486.713
768.769	489.826
768.897	490.539
769.025	482.261
769.153	481.722
769.281	479.913
769.409	479.878
769.538	478.904
769.666	466.339
769.794	473.052
769.922	466.339
770.050	463.913
770.178	465.835
770.306	461.626
770.434	462.243
770.563	460.870
770.691	456.983
770.819	457.078
770.947	447.052
771.075	454.496
771.203	452.504
771.331	448.765
771.459	443.052
771.588	445.287
771.716	442.217
771.844	439.843
771.972	441.261
772.100	435.478
772.228	433.496
772.356	434.991
772.484	428.730
772.613	429.417
772.741	424.635
772.869	421.209
772.997	421.296
773.125	421.278
773.253	416.409
773.381	414.583
773.509	415.426
773.638	418.183
773.766	412.191
773.894	413.443
774.022	409.443
774.150	412.904
774.278	407.226
774.406	404.296
774.534	397.948
774.663	400.843
774.791	396.930
774.919	399.235
775.047	397.913
775.175	395.991
775.303	395.565
775.431	392.270
775.559	388.461
775.688	390.052
775.816	393.557
775.944	383.330
776.072	383.539
776.200	386.574
776.328	380.165
776.456	381.104
776.584	373.730
776.713	378.165
776.841	375.078
776.969	375.409
777.097	368.191
777.225	371.661
777.353	371.078
777.481	370.852
777.609	369.713
777.738	370.087
777.866	366.861
777.994	363.435
778.122	359.678
778.250	361.957
778.378	359.922
778.506	358.470
778.634	356.148
778.763	355.991
778.891	347.443
779.019	351.313
779.147	356.774
779.275	347.487
779.403	345.296
779.531	348.974
779.659	349.070
779.788	343.783
779.916	347.278
780.044	342.200
780.172	342.348
780.300	339.687
780.428	343.322
780.556	336.783
780.684	340.409
780.813	337.139
780.941	331.635
781.069	330.574
781.197	336.130
781.325	328.670
781.453	329.678
781.581	332.843
781.709	326.096
781.838	328.226
781.966	323.539
782.094	323.235
782.222	321.391
782.350	319.183
782.478	320.383
782.606	317.252
782.734	314.843
782.863	316.217
782.991	315.235
783.119	314.722
783.247	310.887
783.375	310.139
783.503	311.035
783.631	314.130
783.759	304.426
783.888	305.400
784.016	305.000
784.144	305.539
784.272	302.487
784.400	302.843
784.528	301.104
784.656	300.539
784.784	297.539
784.913	300.417
785.041	299.391
785.169	297.026
785.297	290.957
785.425	294.287
785.553	294.357
785.681	291.443
785.809	294.183
785.938	288.148
786.066	287.243
786.194	288.896
786.322	284.313
786.450	280.574
786.578	284.904
786.706	282.704
786.834	280.504
786.963	282.609
787.091	279.774
787.219	279.530
787.347	279.522
787.475	279.530
787.603	278.078
787.731	273.304
787.859	274.791
787.988	275.313
788.116	270.157
788.244	272.852
788.372	270.809
788.500	266.191
788.628	272.270
788.756	268.739
788.884	268.009
789.013	267.939
789.141	266.704
789.269	266.183
789.397	259.191
789.525	263.496
789.653	260.522
789.781	259.678
789.909	259.800
790.038	258.139
790.166	255.783
790.294	257.826
790.422	254.670
790.550	256.887
790.678	252.870
790.806	250.009
790.934	251.287
791.063	252.174
791.191	248.670
791.319	248.565
791.447	249.774
791.575	248.461
791.703	246.626
791.831	249.435
791.959	247.157
792.088	250.417
792.216	242.513
792.344	245.217
792.472	241.583
792.600	250.452
792.728	243.913
792.856	240.617
792.984	236.104
793.113	241.722
793.241	238.339
793.369	241.617
793.497	236.609
793.625	234.826
793.753	233.513
793.881	236.339
794.009	235.304
794.138	232.435
794.266	232.896
794.394	233.861
794.522	229.913
794.650	231.522
794.778	224.861
794.906	229.278
795.034	227.270
795.163	225.965
795.291	227.043
795.419	230.183
795.547	222.043
795.675	225.504
795.803	220.400
795.931	221.922
796.059	221.252
796.188	220.626
796.316	217.896
796.444	219.896
796.572	222.652
796.700	215.826
796.828	218.991
796.956	213.496
797.084	218.348
797.213	215.783
797.341	213.843
797.469	214.217
797.597	213.130
797.725	208.878
797.853	210.165
797.981	209.157
798.109	211.722
798.238	211.557
798.366	210.122
798.494	207.852
798.622	208.270
798.750	210.035
798.878	207.504
799.006	208.052
799.134	206.739
799.263	207.043
799.391	201.670
799.519	207.139
799.647	202.261
799.775	202.852
799.903	198.139
800.031	204.261
800.159	202.183
800.288	202.330
800.416	199.687
800.544	195.991
800.672	201.470
800.800	196.704
800.928	198.704
801.056	197.974
801.184	197.061
801.313	197.922
801.441	195.087
801.569	194.391
801.697	195.217
801.825	196.096
801.953	195.122
802.081	195.748
802.209	192.452
802.338	196.452
802.466	189.774
802.594	191.426
802.722	195.165
802.850	191.574
802.978	191.948
803.106	186.443
803.234	187.496
803.363	189.443
803.491	184.670
803.619	186.565
803.747	187.243
803.875	189.704
804.003	184.704
804.131	185.583
804.259	180.374
804.388	186.704
804.516	185.209
804.644	183.243
804.772	184.609
804.900	182.052
805.028	184.209
805.156	182.670
805.284	179.696
805.413	181.287
805.541	180.965
805.669	179.843
805.797	177.252
805.925	180.878
806.053	176.548
806.181	175.696
806.309	178.113
806.438	176.696
806.566	174.835
806.694	176.148
806.822	176.757
806.950	174.226
807.078	174.096
807.206	174.400
807.334	172.139
807.463	174.270
807.591	173.017
807.719	173.409
807.847	173.809
807.975	171.287
808.103	172.139
808.231	170.391
808.359	171.200
808.488	173.200
808.616	172.209
808.744	172.504
808.872	168.652
809.000	167.113
809.128	167.600
809.256	170.261
809.384	168.200
809.513	169.278
809.641	168.878
809.769	166.461
809.897	167.522
810.025	167.878
810.153	166.017
810.281	167.096
810.409	166.374
810.538	167.957
810.666	164.678
810.794	166.965
810.922	162.000
811.050	165.070
811.178	161.313
811.306	162.557
811.434	161.191
811.563	162.783
811.691	166.522
811.819	160.696
811.947	165.443
812.075	161.165
812.203	160.965
812.331	162.000
812.459	160.913
812.588	161.870
812.716	158.974
812.844	161.913
812.972	160.226
813.100	159.165
813.228	160.922
813.356	161.652
813.484	154.948
813.613	156.887
813.741	159.957
813.869	154.522
