spectrometer_0_60nm_hybrid_at_650.00nm_cut_at_1184.50Y_01.dat
02.05.2022
11:53:08
cut middle at Y: 1184.50
top cursor: 1210 down cursor: 1159 mean of: 51 lines , 2560 datapoints
wavelength(nm)	intensity[arb. units]
485.997	5428.431
486.125	4999.196
486.253	4938.863
486.381	4934.039
486.510	4977.235
486.638	5088.961
486.766	5050.588
486.894	5103.412
487.022	5100.490
487.150	5081.902
487.278	5123.843
487.406	5120.882
487.535	5193.196
487.663	5180.627
487.791	5187.745
487.919	5214.137
488.047	5170.373
488.175	5264.549
488.303	5252.941
488.431	5261.392
488.560	5277.529
488.688	5289.137
488.816	5281.294
488.944	5354.216
489.072	5338.020
489.200	5360.353
489.328	5377.549
489.456	5448.804
489.585	5458.039
489.713	5436.804
489.841	5469.490
489.969	5430.647
490.097	5510.725
490.225	5517.098
490.353	5590.980
490.481	5564.333
490.610	5581.627
490.738	5604.941
490.866	5695.039
490.994	5622.490
491.122	5709.176
491.250	5672.314
491.378	5681.529
491.506	5795.098
491.635	5740.176
491.763	5766.941
491.891	5766.275
492.019	5860.196
492.147	5801.314
492.275	5781.686
492.403	5755.235
492.531	5942.216
492.660	5857.804
492.788	5864.608
492.916	5887.392
493.044	5864.255
493.172	5922.863
493.300	5929.510
493.428	5925.765
493.556	5980.510
493.685	5994.392
493.813	6018.902
493.941	6059.314
494.069	6109.980
494.197	6131.510
494.325	6183.647
494.453	6318.922
494.581	6226.333
494.710	6302.686
494.838	6316.471
494.966	6403.745
495.094	6378.039
495.222	6430.784
495.350	6454.294
495.478	6480.608
495.606	6508.804
495.735	6511.157
495.863	6542.118
495.991	6630.608
496.119	6596.176
496.247	6708.902
496.375	6624.000
496.503	6639.431
496.631	6664.765
496.760	6592.627
496.888	6626.176
497.016	6666.157
497.144	6618.490
497.272	6634.059
497.400	6639.902
497.528	6561.078
497.656	6564.255
497.785	6533.137
497.913	6515.353
498.041	6532.824
498.169	6519.588
498.297	6497.294
498.425	6597.490
498.553	6489.039
498.681	6466.765
498.810	6561.725
498.938	6515.745
499.066	6518.725
499.194	6571.765
499.322	6589.137
499.450	6531.961
499.578	6581.510
499.706	6591.020
499.835	6635.333
499.963	6575.745
500.091	6656.471
500.219	6655.510
500.347	6725.098
500.475	6704.843
500.603	6729.431
500.731	6757.235
500.860	6773.157
500.988	6823.686
501.116	6781.373
501.244	6825.588
501.372	6886.216
501.500	6915.118
501.628	6951.431
501.756	6904.275
501.885	7008.078
502.013	6937.686
502.141	7040.451
502.269	6995.196
502.397	7116.863
502.525	7069.980
502.653	7161.431
502.781	7107.275
502.910	7112.294
503.038	7140.843
503.166	7164.255
503.294	7137.490
503.422	7174.510
503.550	7155.941
503.678	7156.412
503.806	7189.961
503.935	7178.098
504.063	7241.431
504.191	7193.549
504.319	7211.196
504.447	7168.745
504.575	7178.941
504.703	7210.706
504.831	7149.118
504.960	7140.216
505.088	7198.059
505.216	7223.333
505.344	7347.647
505.472	7208.431
505.600	7206.549
505.728	7334.235
505.856	7271.216
505.985	7308.059
506.113	7328.882
506.241	7326.118
506.369	7299.961
506.497	7294.000
506.625	7380.745
506.753	7314.412
506.881	7383.235
507.010	7398.098
507.138	7327.745
507.266	7452.882
507.394	7391.922
507.522	7489.804
507.650	7474.157
507.778	7468.471
507.906	7555.431
508.035	7524.961
508.163	7546.824
508.291	7518.020
508.419	7639.804
508.547	7633.196
508.675	7664.647
508.803	7630.647
508.931	7678.549
509.060	7661.137
509.188	7681.686
509.316	7675.882
509.444	7727.725
509.572	7871.824
509.700	7740.235
509.828	7868.157
509.956	7854.608
510.085	7838.686
510.213	7885.294
510.341	7880.863
510.469	7872.275
510.597	7928.980
510.725	7911.961
510.853	7999.725
510.981	7967.843
511.110	8001.627
511.238	8005.490
511.366	8058.627
511.494	8038.275
511.622	8105.882
511.750	8109.980
511.878	8162.373
512.006	8202.118
512.135	8236.098
512.263	8240.941
512.391	8268.000
512.519	8337.667
512.647	8288.725
512.775	8352.275
512.903	8339.176
513.031	8364.098
513.160	8363.627
513.288	8479.314
513.416	8399.667
513.544	8443.941
513.672	8419.569
513.800	8449.471
513.928	8445.039
514.056	8507.039
514.185	8475.333
514.313	8425.333
514.441	8536.137
514.569	8451.078
514.697	8481.902
514.825	8421.549
514.953	8443.863
515.081	8397.059
515.210	8429.078
515.338	8491.118
515.466	8355.020
515.594	8404.686
515.722	8397.608
515.850	8394.843
515.978	8320.627
516.106	8394.588
516.235	8354.941
516.363	8382.686
516.491	8411.000
516.619	8420.745
516.747	8487.980
516.875	8413.667
517.003	8459.490
517.131	8435.412
517.260	8380.608
517.388	8450.843
517.516	8482.078
517.644	8496.098
517.772	8576.176
517.900	8624.098
518.028	8637.000
518.156	8643.627
518.284	8634.412
518.413	8677.451
518.541	8712.373
518.669	8683.275
518.797	8713.863
518.925	8747.275
519.053	8779.216
519.181	8807.176
519.309	8811.608
519.438	8885.353
519.566	8891.275
519.694	8866.784
519.822	8945.392
519.950	8941.059
520.078	8973.059
520.206	9059.412
520.334	9057.725
520.463	9036.000
520.591	9081.765
520.719	9068.706
520.847	9101.667
520.975	9118.098
521.103	9184.686
521.231	9135.647
521.359	9312.314
521.488	9149.765
521.616	9235.588
521.744	9164.431
521.872	9255.922
522.000	9154.353
522.128	9156.314
522.256	9208.353
522.384	9158.118
522.513	9139.431
522.641	9180.765
522.769	9191.098
522.897	9217.235
523.025	9179.490
523.153	9196.039
523.281	9264.196
523.409	9211.255
523.538	9223.157
523.666	9138.118
523.794	9224.157
523.922	9225.471
524.050	9226.961
524.178	9205.412
524.306	9203.941
524.434	9314.471
524.563	9370.294
524.691	9486.451
524.819	9412.549
524.947	9407.843
525.075	9437.118
525.203	9473.549
525.331	9558.137
525.459	9693.745
525.588	9646.686
525.716	9746.000
525.844	9748.137
525.972	9840.804
526.100	9873.902
526.228	9932.137
526.356	9892.020
526.484	9995.235
526.613	9988.176
526.741	10096.941
526.869	10118.255
526.997	10177.039
527.125	10193.078
527.253	10194.882
527.381	10275.118
527.509	10259.255
527.638	10298.804
527.766	10335.980
527.894	10351.196
528.022	10455.569
528.150	10377.961
528.278	10513.098
528.406	10463.686
528.534	10502.824
528.663	10495.059
528.791	10634.549
528.919	10572.667
529.047	10647.255
529.175	10501.647
529.303	10519.882
529.431	10539.784
529.559	10588.196
529.688	10515.431
529.816	10517.647
529.944	10654.431
530.072	10591.588
530.200	10540.647
530.328	10538.216
530.456	10543.039
530.584	10538.020
530.713	10568.216
530.841	10562.176
530.969	10575.824
531.097	10506.490
531.225	10585.863
531.353	10654.451
531.481	10551.863
531.609	10741.157
531.738	10548.294
531.866	10682.627
531.994	10671.216
532.122	10704.725
532.250	10608.922
532.378	10582.451
532.506	10582.471
532.634	10620.863
532.763	10623.745
532.891	10664.333
533.019	10628.000
533.147	10579.941
533.275	10591.451
533.403	10650.000
533.531	10686.529
533.659	10635.529
533.788	10690.588
533.916	10689.549
534.044	10729.569
534.172	10793.392
534.300	10744.627
534.428	10731.118
534.556	10979.588
534.684	10825.039
534.813	10783.490
534.941	10803.843
535.069	10852.314
535.197	10805.039
535.325	10833.804
535.453	10833.314
535.581	10913.510
535.709	10840.608
535.838	10894.039
535.966	10929.588
536.094	10882.647
536.222	10893.490
536.350	10875.098
536.478	10914.255
536.606	11015.392
536.734	10982.902
536.863	11027.765
536.991	10998.569
537.119	11019.039
537.247	11007.000
537.375	11173.922
537.503	10962.059
537.631	11048.569
537.759	11060.922
537.888	11017.647
538.016	11189.824
538.144	11088.039
538.272	11086.863
538.400	11146.882
538.528	11110.902
538.656	11131.922
538.784	11185.373
538.913	11261.608
539.041	11239.863
539.169	11229.353
539.297	11250.647
539.425	11401.686
539.553	11340.667
539.681	11389.353
539.809	11404.569
539.938	11386.941
540.066	11429.098
540.194	11473.196
540.322	11591.275
540.450	11564.373
540.578	11560.804
540.706	11570.412
540.834	11592.588
540.963	11784.196
541.091	11654.255
541.219	11688.745
541.347	11795.235
541.475	11756.490
541.603	11781.314
541.731	11762.980
541.859	11760.824
541.988	11818.725
542.116	11979.922
542.244	11843.353
542.372	11997.902
542.500	11858.569
542.628	11969.608
542.756	11894.059
542.884	11895.804
543.013	11885.275
543.141	11920.078
543.269	11923.392
543.397	11847.922
543.525	11893.059
543.653	11912.804
543.781	11806.412
543.909	11808.294
544.038	11892.490
544.166	11862.235
544.294	11898.961
544.422	11739.333
544.550	11766.608
544.678	11819.137
544.806	11709.608
544.934	11629.765
545.063	11692.412
545.191	11756.490
545.319	11648.255
545.447	11504.392
545.575	11493.078
545.703	11554.765
545.831	11525.059
545.959	11444.725
546.088	11427.902
546.216	11484.588
546.344	11463.961
546.472	11635.196
546.600	11485.294
546.728	11466.471
546.856	11499.373
546.984	11505.529
547.113	11618.941
547.241	11577.686
547.369	11632.392
547.497	11636.941
547.625	11662.333
547.753	11651.627
547.881	11630.686
548.009	11599.804
548.138	11624.451
548.266	11615.784
548.394	11689.961
548.522	11614.020
548.650	11742.765
548.778	11656.059
548.906	11607.431
549.034	11695.098
549.163	11630.588
549.291	11633.255
549.419	11734.961
549.547	11949.412
549.675	11822.922
549.803	11959.980
549.931	11993.275
550.059	12077.373
550.188	12211.471
550.316	12303.667
550.444	12352.549
550.572	12390.059
550.700	12425.059
550.828	12446.431
550.956	12496.157
551.084	12590.392
551.213	12572.020
551.341	12693.745
551.469	12662.098
551.597	12689.941
551.725	12785.157
551.853	12722.176
551.981	12793.451
552.109	12781.412
552.238	12836.843
552.366	12788.255
552.494	12866.118
552.622	12760.353
552.750	12848.392
552.878	12840.569
553.006	12910.843
553.134	12849.941
553.263	12922.608
553.391	12890.059
553.519	13061.706
553.647	12928.314
553.775	12906.961
553.903	13049.137
554.031	12989.745
554.159	12951.549
554.288	13041.039
554.416	13008.020
554.544	13052.373
554.672	13005.078
554.800	12977.961
554.928	12958.235
555.056	12992.333
555.184	13026.353
555.313	13000.549
555.441	12958.118
555.569	12964.216
555.697	12995.647
555.825	13009.118
555.953	13045.039
556.081	13021.216
556.209	13005.294
556.338	13022.490
556.466	13184.863
556.594	13050.118
556.722	13078.961
556.850	13155.765
556.978	12996.804
557.106	13005.412
557.234	13038.118
557.363	13059.667
557.491	12997.941
557.619	13036.588
557.747	13088.471
557.875	12995.608
558.003	13060.451
558.131	13009.020
558.259	13073.922
558.388	13035.392
558.516	13007.725
558.644	13037.745
558.772	13026.882
558.900	13002.039
559.028	13021.941
559.156	13031.647
559.284	12997.157
559.413	13002.333
559.541	12999.471
559.669	13015.451
559.797	13045.157
559.925	12985.902
560.053	13065.882
560.181	13054.373
560.309	13113.255
560.438	13091.137
560.566	13066.804
560.694	13016.431
560.822	13168.373
560.950	13021.725
561.078	13057.196
561.206	13171.392
561.334	13028.059
561.463	12991.804
561.591	13118.706
561.719	13034.392
561.847	13050.196
561.975	13014.765
562.103	13059.765
562.231	13115.765
562.359	12979.529
562.488	13097.176
562.616	13043.941
562.744	13068.353
562.872	13081.098
563.000	12995.647
563.128	13057.078
563.256	13054.882
563.384	13256.039
563.513	13064.980
563.641	13142.431
563.769	13130.882
563.897	13111.647
564.025	13149.275
564.153	13189.176
564.281	13247.647
564.409	13221.961
564.538	13191.392
564.666	13259.157
564.794	13262.569
564.922	13279.471
565.050	13353.196
565.178	13313.373
565.306	13354.353
565.434	13392.392
565.563	13504.627
565.691	13421.824
565.819	13546.529
565.947	13429.157
566.075	13395.863
566.203	13434.333
566.331	13420.039
566.459	14321.510
566.588	13516.667
566.716	13503.745
566.844	13481.686
566.972	13542.647
567.100	13582.294
567.228	13657.725
567.356	13684.510
567.484	13658.392
567.613	13717.078
567.741	13747.353
567.869	13735.745
567.997	13733.078
568.125	13741.882
568.253	13869.333
568.381	13791.824
568.509	13808.961
568.638	13924.373
568.766	13897.098
568.894	13888.725
569.022	13842.157
569.150	13907.314
569.278	13853.569
569.406	14014.353
569.534	14009.157
569.663	13933.745
569.791	13960.686
569.919	13998.235
570.047	14152.922
570.175	14010.902
570.303	14012.196
570.431	13945.608
570.559	14063.020
570.688	14207.098
570.816	14035.235
570.944	14100.078
571.072	14032.765
571.200	13937.824
571.328	14038.020
571.456	14030.118
571.584	14014.863
571.713	14043.059
571.841	14099.000
571.969	14192.922
572.097	14140.647
572.225	13981.627
572.353	13998.235
572.481	13878.196
572.609	14004.980
572.738	13965.275
572.866	13945.118
572.994	13924.882
573.122	13974.941
573.250	13947.137
573.378	13918.255
573.506	13906.745
573.634	13949.118
573.763	13892.490
573.891	13879.667
574.019	13880.765
574.147	13811.255
574.275	13850.980
574.403	13891.157
574.531	13823.882
574.659	13769.510
574.788	13764.549
574.916	13992.686
575.044	13793.000
575.172	13802.588
575.300	13792.882
575.428	13766.196
575.556	13807.490
575.684	13794.902
575.813	13828.941
575.941	13840.725
576.069	13834.608
576.197	13845.980
576.325	13784.059
576.453	13812.451
576.581	13782.255
576.709	13815.020
576.838	13828.549
576.966	13998.451
577.094	14087.725
577.222	13973.824
577.350	13953.431
577.478	14117.510
577.606	14027.333
577.734	14078.510
577.863	14175.686
577.991	14282.490
578.119	14338.706
578.247	14320.745
578.375	14434.373
578.503	14420.882
578.631	14381.235
578.759	14445.569
578.888	14618.039
579.016	14413.196
579.144	14447.353
579.272	14486.118
579.400	14554.196
579.528	14627.275
579.656	14714.216
579.784	14587.588
579.913	14631.667
580.041	14895.824
580.169	14672.843
580.297	14814.255
580.425	14789.529
580.553	14830.961
580.681	14844.784
580.809	14850.941
580.938	14949.176
581.066	15022.098
581.194	14971.745
581.322	15036.686
581.450	15109.882
581.578	15091.255
581.706	15158.667
581.834	15214.314
581.963	15214.294
582.091	15271.078
582.219	15270.863
582.347	15357.392
582.475	15296.902
582.603	15409.706
582.731	15467.804
582.859	15422.059
582.988	15504.922
583.116	15524.863
583.244	15530.412
583.372	15606.569
583.500	15563.941
583.628	15631.961
583.756	15651.255
583.884	15666.569
584.013	15702.333
584.141	15653.725
584.269	15686.176
584.397	15778.235
584.525	15749.510
584.653	15804.431
584.781	15853.765
584.909	15853.392
585.038	15845.176
585.166	15824.725
585.294	15863.824
585.422	15843.725
585.550	15849.941
585.678	15781.510
585.806	15795.882
585.934	15862.882
586.063	15856.922
586.191	15834.824
586.319	15868.137
586.447	15813.824
586.575	15800.118
586.703	15831.098
586.831	15800.804
586.959	15823.647
587.088	15758.843
587.216	15792.608
587.344	15791.980
587.472	15911.706
587.600	15688.098
587.728	15732.529
587.856	15742.804
587.984	15673.118
588.113	15750.098
588.241	15786.588
588.369	15837.686
588.497	15765.392
588.625	15766.725
588.753	15954.059
588.881	15866.882
589.009	15858.627
589.138	15907.569
589.266	15883.529
589.394	15908.784
589.522	15912.843
589.650	16063.804
589.778	15993.118
589.906	16043.471
590.034	15961.431
590.163	15931.294
590.291	16009.569
590.419	15924.980
590.547	16067.078
590.675	16009.275
590.803	16065.333
590.931	16049.373
591.059	16077.804
591.188	15987.373
591.316	15988.333
591.444	15993.196
591.572	16042.765
591.700	15985.804
591.828	15917.314
591.956	16024.412
592.084	15915.706
592.213	15941.255
592.341	15922.255
592.469	15898.588
592.597	15861.333
592.725	15883.882
592.853	15777.392
592.981	15855.333
593.109	15829.686
593.238	15710.863
593.366	15662.451
593.494	15690.137
593.622	15744.725
593.750	15628.745
593.878	15707.412
594.006	15528.725
594.134	15501.490
594.263	15618.608
594.391	15445.569
594.519	15503.922
594.647	15526.137
594.775	15465.000
594.903	15408.000
595.031	15444.745
595.159	15387.098
595.288	15318.804
595.416	15370.588
595.544	15277.078
595.672	15213.647
595.800	15275.118
595.928	15205.353
596.056	15182.333
596.184	15148.784
596.313	15320.314
596.441	15112.098
596.569	15132.588
596.697	15006.647
596.825	14961.137
596.953	14997.392
597.081	14967.490
597.209	14923.118
597.338	14962.000
597.466	14937.647
597.594	14898.980
597.722	15088.765
597.850	14993.549
597.978	15080.765
598.106	15098.196
598.234	15078.235
598.363	15061.941
598.491	15188.667
598.619	15091.216
598.747	15078.804
598.875	15235.216
599.003	15144.314
599.131	15232.941
599.259	15228.510
599.388	15201.608
599.516	15295.157
599.644	15369.627
599.772	15392.706
599.900	15311.059
600.028	15291.314
600.156	15418.510
600.284	15305.961
600.413	15321.529
600.541	15437.980
600.669	15519.157
600.797	15391.784
600.925	15472.255
601.053	15448.431
601.181	15528.157
601.309	15406.922
601.438	15404.137
601.566	15426.275
601.694	15434.902
601.822	15669.431
601.950	15358.137
602.078	15481.647
602.206	15520.255
602.334	15469.863
602.463	15406.745
602.591	15489.902
602.719	15429.235
602.847	15647.176
602.975	15440.157
603.103	15441.804
603.231	15405.804
603.359	15410.882
603.488	15364.373
603.616	15348.549
603.744	15345.608
603.872	15344.137
604.000	15325.275
604.128	15327.294
604.256	15308.098
604.384	15386.569
604.513	15411.196
604.641	15445.490
604.769	15478.941
604.897	15307.000
605.025	15238.941
605.153	15313.353
605.281	15331.196
605.409	15202.000
605.538	15197.255
605.666	15282.569
605.794	15292.902
605.922	15241.392
606.050	15163.784
606.178	15231.686
606.306	15164.275
606.434	15164.765
606.563	15059.235
606.691	15105.725
606.819	15071.392
606.947	15063.490
607.075	15046.118
607.203	15026.980
607.331	15003.902
607.459	14987.510
607.588	14947.294
607.716	14930.235
607.844	14988.745
607.972	14939.020
608.100	14806.647
608.228	14823.510
608.356	14842.745
608.484	14845.412
608.613	14843.412
608.741	14761.039
608.869	14796.980
608.997	14776.353
609.125	14794.686
609.253	14735.667
609.381	14663.686
609.509	14595.078
609.638	14623.294
609.766	14568.784
609.894	14575.647
610.022	14498.118
610.150	14631.275
610.278	14445.627
610.406	14479.941
610.534	14464.078
610.663	14380.961
610.791	14526.255
610.919	14342.863
611.047	14419.667
611.175	14298.608
611.303	14343.902
611.431	14315.255
611.559	14361.804
611.688	14308.529
611.816	14294.608
611.944	14238.490
612.072	14203.137
612.200	14212.529
612.328	14280.725
612.456	14203.451
612.584	14354.333
612.713	14192.647
612.841	14164.314
612.969	14084.863
613.097	14009.294
613.225	14040.490
613.353	14068.745
613.481	13999.588
613.609	14005.824
613.738	14011.353
613.866	14101.784
613.994	14043.471
614.122	14034.961
614.250	13970.353
614.378	14001.549
614.506	13948.137
614.634	14071.843
614.763	13922.627
614.891	13922.078
615.019	13993.745
615.147	13935.255
615.275	13925.902
615.403	13946.412
615.531	13920.569
615.659	13878.353
615.788	13839.980
615.916	13926.157
616.044	13864.196
616.172	14002.961
616.300	13868.961
616.428	13899.412
616.556	13871.745
616.684	13825.412
616.813	13840.020
616.941	13790.392
617.069	13724.686
617.197	13952.255
617.325	13783.294
617.453	13761.667
617.581	13870.294
617.709	13782.137
617.838	13782.569
617.966	13805.902
618.094	13806.137
618.222	13864.941
618.350	13852.333
618.478	13815.647
618.606	13936.902
618.734	13873.824
618.863	13954.765
618.991	13917.059
619.119	13934.431
619.247	13887.843
619.375	13883.549
619.503	13922.118
619.631	14014.824
619.759	13869.529
619.888	13828.961
620.016	13925.490
620.144	13954.725
620.272	13818.941
620.400	13973.157
620.528	13901.314
620.656	14039.471
620.784	14002.471
620.913	13951.118
621.041	13935.314
621.169	13994.510
621.297	13962.353
621.425	13979.961
621.553	14012.275
621.681	14051.137
621.809	14038.745
621.938	13981.922
622.066	14115.980
622.194	14049.961
622.322	13985.196
622.450	13976.824
622.578	13982.843
622.706	13926.784
622.834	13944.118
622.963	13981.686
623.091	13984.078
623.219	13960.294
623.347	14016.510
623.475	13968.137
623.603	13957.333
623.731	13979.765
623.859	14021.745
623.988	13929.686
624.116	13956.039
624.244	14022.529
624.372	13956.157
624.500	13932.059
624.628	13968.098
624.756	13979.706
624.884	14053.961
625.013	14172.569
625.141	14013.490
625.269	13930.922
625.397	14025.353
625.525	14068.725
625.653	13928.608
625.781	14071.863
625.909	13890.608
626.038	13927.922
626.166	13961.843
626.294	13898.745
626.422	13954.216
626.550	13949.745
626.678	13977.765
626.806	13895.196
626.934	13923.000
627.063	13939.627
627.191	13926.843
627.319	13926.549
627.447	13964.431
627.575	13910.608
627.703	13942.020
627.831	14021.314
627.959	13919.275
628.088	13989.647
628.216	14021.686
628.344	13977.922
628.472	13968.412
628.600	14143.902
628.728	13900.784
628.856	13896.725
628.984	13871.667
629.113	13904.608
629.241	13926.686
629.369	13857.176
629.497	13861.765
629.625	13910.569
629.753	13796.000
629.881	13788.686
630.009	13780.863
630.138	13829.392
630.266	13801.961
630.394	13894.765
630.522	13905.176
630.650	13714.000
630.778	13661.882
630.906	13610.431
631.034	13520.490
631.163	13674.098
631.291	13594.039
631.419	13499.294
631.547	13446.608
631.675	13458.765
631.803	13407.745
631.931	13472.824
632.059	13522.804
632.188	13410.745
632.316	13347.569
632.444	13424.608
632.572	13358.059
632.700	13345.706
632.828	13316.137
632.956	13223.961
633.084	13222.137
633.213	13231.451
633.341	13224.882
633.469	13217.941
633.597	13201.784
633.725	13139.765
633.853	13177.412
633.981	13161.490
634.109	13329.412
634.238	13128.843
634.366	13104.275
634.494	13105.235
634.622	13087.039
634.750	13053.098
634.878	13091.098
635.006	13052.176
635.134	12967.490
635.263	13083.784
635.391	13009.020
635.519	12943.471
635.647	12979.510
635.775	12923.824
635.903	12943.961
636.031	12826.745
636.159	12793.098
636.288	12762.588
636.416	12776.314
636.544	12731.275
636.672	12704.392
636.800	12755.647
636.928	12696.039
637.056	12808.118
637.184	12676.373
637.313	12648.804
637.441	12664.706
637.569	12804.863
637.697	12802.353
637.825	12764.784
637.953	12857.000
638.081	12874.098
638.209	12960.863
638.338	12944.373
638.466	13026.510
638.594	12997.137
638.722	13018.020
638.850	13128.843
638.978	13100.373
639.106	13122.765
639.234	13150.980
639.363	13164.451
639.491	13157.961
639.619	13304.373
639.747	13274.588
639.875	13303.157
640.003	13326.510
640.131	13400.471
640.259	13387.176
640.388	13501.039
640.516	13488.157
640.644	13507.725
640.772	13528.431
640.900	13520.471
641.028	13524.784
641.156	13494.137
641.284	13499.686
641.413	13659.804
641.541	13620.020
641.669	13560.078
641.797	13630.471
641.925	13538.216
642.053	13688.451
642.181	13573.333
642.309	13556.000
642.438	13628.941
642.566	13605.471
642.694	13737.020
642.822	13603.412
642.950	13570.118
643.078	13699.784
643.206	13631.941
643.334	13659.686
643.463	13611.902
643.591	13613.882
643.719	13718.549
643.847	13689.118
643.975	13722.667
644.103	13711.098
644.231	13720.647
644.359	13713.196
644.488	13700.686
644.616	13729.216
644.744	13762.706
644.872	13724.000
645.000	13849.647
645.128	13759.784
645.256	13797.843
645.384	13843.020
645.513	13833.922
645.641	13857.078
645.769	13859.431
645.897	13972.451
646.025	13913.765
646.153	13925.863
646.281	13928.745
646.409	13852.216
646.538	13982.392
646.666	13937.725
646.794	13879.608
646.922	13913.529
647.050	13913.725
647.178	13814.157
647.306	14091.235
647.434	13836.490
647.563	13838.294
647.691	13912.235
647.819	13912.451
647.947	13822.863
648.075	13847.608
648.203	13873.392
648.331	13911.686
648.459	13870.765
648.588	13851.078
648.716	13972.510
648.844	13891.686
648.972	13911.392
649.100	13896.471
649.228	13950.216
649.356	13969.353
649.484	13975.431
649.613	14045.706
649.741	14035.353
649.869	14044.765
649.997	14092.000
650.125	14125.020
650.253	14064.941
650.381	14088.961
650.509	14104.961
650.638	14101.059
650.766	14218.353
650.894	14116.314
651.022	14065.608
651.150	14115.118
651.278	14167.804
651.406	14134.647
651.534	14146.196
651.663	14110.373
651.791	14380.804
651.919	14178.686
652.047	14150.686
652.175	14227.275
652.303	14228.000
652.431	14280.902
652.559	14344.235
652.688	14231.118
652.816	14355.490
652.944	14219.471
653.072	14250.529
653.200	14291.843
653.328	14292.980
653.456	14256.078
653.584	14340.549
653.713	14316.980
653.841	14329.333
653.969	14321.922
654.097	14346.667
654.225	14371.863
654.353	14416.588
654.481	14433.804
654.609	14474.078
654.738	14497.098
654.866	14470.235
654.994	14556.137
655.122	14585.725
655.250	14673.176
655.378	14514.686
655.506	14575.706
655.634	14679.294
655.763	14469.588
655.891	14525.196
656.019	14584.176
656.147	14578.196
656.275	14625.608
656.403	14586.510
656.531	14542.275
656.659	14632.373
656.788	14673.882
656.916	14644.980
657.044	14583.255
657.172	14628.627
657.300	14799.765
657.428	14646.431
657.556	14676.353
657.684	14600.176
657.813	14648.784
657.941	14544.961
658.069	14570.804
658.197	14531.196
658.325	14625.529
658.453	14564.588
658.581	14537.196
658.709	14384.529
658.838	14579.471
658.966	14511.471
659.094	14569.000
659.222	14531.078
659.350	14512.392
659.478	14605.706
659.606	14581.373
659.734	14537.824
659.863	14486.235
659.991	14474.118
660.119	14509.765
660.247	14627.941
660.375	14497.608
660.503	14475.627
660.631	14540.922
660.759	14480.118
660.888	14463.255
661.016	14388.353
661.144	14447.804
661.272	14466.294
661.400	14498.608
661.528	14493.608
661.656	14453.784
661.784	14402.980
661.913	14486.333
662.041	14597.118
662.169	14521.863
662.297	14689.686
662.425	14580.412
662.553	14755.804
662.681	14580.784
662.809	14713.824
662.938	14638.490
663.066	14609.902
663.194	14646.373
663.322	14706.922
663.450	14656.176
663.578	14688.902
663.706	14884.490
663.834	14720.098
663.963	14751.373
664.091	14740.510
664.219	14702.216
664.347	14889.176
664.475	14888.686
664.603	14772.490
664.731	14779.804
664.859	14812.294
664.988	14938.765
665.116	14918.118
665.244	14904.235
665.372	14956.882
665.500	15002.549
665.628	14962.961
665.756	14995.078
665.884	14969.490
666.013	15063.000
666.141	15072.392
666.269	15016.176
666.397	15036.784
666.525	15048.255
666.653	15081.941
666.781	15193.000
666.909	15200.314
667.038	15273.549
667.166	15204.745
667.294	15250.980
667.422	15294.333
667.550	15259.745
667.678	15279.412
667.806	15290.451
667.934	15269.608
668.063	15359.235
668.191	15401.196
668.319	15471.667
668.447	15442.922
668.575	15454.059
668.703	15474.118
668.831	15460.451
668.959	15500.333
669.088	15642.275
669.216	15476.882
669.344	15497.529
669.472	15548.588
669.600	15521.882
669.728	15610.588
669.856	15542.745
669.984	15560.392
670.113	15492.725
670.241	15449.294
670.369	15484.176
670.497	15502.941
670.625	15443.882
670.753	15676.275
670.881	15731.980
671.009	15548.431
671.138	15571.314
671.266	15424.961
671.394	15507.353
671.522	15494.686
671.650	15411.627
671.778	15391.843
671.906	15408.980
672.034	15412.118
672.163	15451.922
672.291	15445.627
672.419	15488.824
672.547	15392.549
672.675	15277.157
672.803	15308.451
672.931	15307.765
673.059	15209.549
673.188	15148.471
673.316	15146.745
673.444	15198.176
673.572	15346.392
673.700	15133.765
673.828	15199.569
673.956	15101.118
674.084	15082.529
674.213	15109.510
674.341	15011.863
674.469	15008.235
674.597	15008.569
674.725	15129.725
674.853	14919.725
674.981	14943.078
675.109	14869.549
675.238	14854.765
675.366	14829.549
675.494	14798.529
675.622	14822.314
675.750	14880.137
675.878	14723.353
676.006	14784.765
676.134	14706.608
676.263	14715.608
676.391	14736.706
676.519	14647.686
676.647	14686.922
676.775	14624.608
676.903	14767.255
677.031	14664.608
677.159	14622.863
677.288	14863.529
677.416	14617.922
677.544	14585.451
677.672	14594.706
677.800	14548.314
677.928	14515.980
678.056	14520.059
678.184	14480.608
678.313	14516.588
678.441	14398.843
678.569	14611.431
678.697	14384.549
678.825	14381.255
678.953	14464.980
679.081	14431.647
679.209	14392.412
679.338	14408.216
679.466	14348.431
679.594	14270.725
679.722	14409.275
679.850	14313.333
679.978	14320.941
680.106	14288.412
680.234	14283.157
680.363	14277.745
680.491	14259.608
680.619	14405.627
680.747	14331.451
680.875	14256.157
681.003	14264.255
681.131	14277.294
681.259	14175.843
681.388	14128.902
681.516	14271.137
681.644	14121.784
681.772	14302.529
681.900	14165.392
682.028	14154.588
682.156	14127.725
682.284	14189.078
682.413	14183.706
682.541	14207.471
682.669	14152.451
682.797	14197.000
682.925	14206.118
683.053	14209.725
683.181	14167.765
683.309	14197.235
683.438	14220.000
683.566	14260.627
683.694	14282.000
683.822	14237.020
683.950	14231.294
684.078	14173.412
684.206	14284.824
684.334	14246.765
684.463	14331.020
684.591	14177.098
684.719	14169.980
684.847	14187.431
684.975	14206.275
685.103	14124.235
685.231	14229.373
685.359	14138.490
685.488	14179.784
685.616	14152.824
685.744	14159.588
685.872	14178.471
686.000	14245.039
686.128	14171.863
686.256	14145.961
686.384	14136.863
686.513	14091.824
686.641	14103.078
686.769	14077.000
686.897	14083.843
687.025	13980.490
687.153	13968.941
687.281	13956.647
687.409	13931.020
687.538	13876.000
687.666	13810.490
687.794	13776.588
687.922	13730.510
688.050	13693.078
688.178	13788.255
688.306	13731.686
688.434	13669.412
688.563	13553.059
688.691	13539.686
688.819	13688.412
688.947	13555.255
689.075	13527.549
689.203	13540.373
689.331	13474.373
689.459	13418.392
689.588	13426.765
689.716	13395.980
689.844	13374.000
689.972	13371.902
690.100	13275.020
690.228	13394.608
690.356	13264.235
690.484	13379.804
690.613	13256.902
690.741	13201.529
690.869	13181.137
690.997	13203.431
691.125	13369.941
691.253	13326.000
691.381	13153.196
691.509	13071.588
691.638	13084.882
691.766	13079.510
691.894	13132.078
692.022	13128.961
692.150	13077.000
692.278	12989.196
692.406	12990.196
692.534	13021.941
692.663	13015.784
692.791	13063.373
692.919	13070.000
693.047	13018.510
693.175	12933.235
693.303	13106.686
693.431	12984.196
693.559	13020.059
693.688	13075.412
693.816	12920.804
693.944	13011.569
694.072	12971.020
694.200	12952.627
694.328	13021.843
694.456	12982.392
694.584	12874.667
694.713	12981.922
694.841	12977.608
694.969	13002.235
695.097	13180.020
695.225	12962.137
695.353	13099.725
695.481	13041.588
695.609	13179.294
695.738	13091.176
695.866	13085.922
695.994	13087.176
696.122	13197.490
696.250	13122.588
696.378	13147.059
696.506	13041.824
696.634	13026.294
696.763	13059.471
696.891	13054.588
697.019	13076.549
697.147	13191.235
697.275	13165.863
697.403	13167.588
697.531	13178.569
697.659	13144.882
697.788	13318.549
697.916	13196.980
698.044	13267.196
698.172	13279.176
698.300	13383.176
698.428	13238.490
698.556	13297.529
698.684	13296.804
698.813	13368.471
698.941	13416.627
699.069	13278.314
699.197	13381.039
699.325	13343.039
699.453	13341.902
699.581	13439.529
699.709	13305.647
699.838	13319.490
699.966	13324.706
700.094	13447.608
700.222	13579.333
700.350	13446.588
700.478	13460.725
700.606	13455.902
700.734	13432.196
700.863	13435.647
700.991	13455.373
701.119	13446.627
701.247	13436.980
701.375	13568.118
701.503	13414.451
701.631	13409.647
701.759	13471.667
701.888	13552.725
702.016	13659.863
702.144	13510.353
702.272	13597.882
702.400	13567.784
702.528	13636.098
702.656	13749.059
702.784	13597.490
702.913	13662.255
703.041	13599.627
703.169	13736.863
703.297	13600.196
703.425	13615.490
703.553	13637.000
703.681	13647.353
703.809	13669.941
703.938	13628.667
704.066	13753.196
704.194	13660.941
704.322	13579.784
704.450	13612.922
704.578	13619.961
704.706	13699.569
704.834	13703.471
704.963	13690.725
705.091	13637.824
705.219	13718.157
705.347	13701.745
705.475	13582.392
705.603	13667.941
705.731	13675.196
705.859	13639.627
705.988	13678.098
706.116	13719.451
706.244	13703.451
706.372	13821.490
706.500	13703.706
706.628	13871.373
706.756	13762.765
706.884	13778.824
707.013	13885.118
707.141	13802.627
707.269	13881.431
707.397	13789.196
707.525	13817.196
707.653	13828.157
707.781	13807.647
707.909	13838.118
708.038	13830.373
708.166	13822.569
708.294	13792.471
708.422	13798.804
708.550	13780.216
708.678	13748.569
708.806	13887.176
708.934	13713.078
709.063	13847.824
709.191	13808.118
709.319	13835.902
709.447	13856.137
709.575	13828.922
709.703	13863.314
709.831	14001.451
709.959	13965.961
710.088	14064.922
710.216	14160.745
710.344	14082.804
710.472	14191.059
710.600	14310.902
710.728	14283.157
710.856	14301.275
710.984	14394.314
711.113	14366.882
711.241	14437.961
711.369	14588.039
711.497	14563.608
711.625	14595.275
711.753	14647.863
711.881	14617.098
712.009	14815.157
712.138	14751.176
712.266	14777.098
712.394	14787.745
712.522	14780.961
712.650	14843.176
712.778	14884.882
712.906	14885.529
713.034	14849.569
713.163	14990.314
713.291	14926.235
713.419	15020.529
713.547	14967.118
713.675	14948.294
713.803	14938.941
713.931	15037.608
714.059	15042.686
714.188	15059.078
714.316	15113.255
714.444	15103.255
714.572	15237.882
714.700	15196.118
714.828	15200.137
714.956	15223.353
715.084	15246.059
715.213	15321.647
715.341	15341.961
715.469	15391.020
715.597	15539.725
715.725	15433.882
715.853	15460.118
715.981	15499.471
716.109	15510.627
716.238	15517.157
716.366	15546.863
716.494	15681.235
716.622	15651.490
716.750	15699.961
716.878	15786.902
717.006	15730.078
717.134	15702.176
717.263	15724.667
717.391	15805.667
717.519	15786.529
717.647	15893.098
717.775	15718.353
717.903	15755.471
718.031	15771.765
718.159	15826.078
718.288	15819.843
718.416	15825.980
718.544	15782.706
718.672	15829.902
718.800	15854.569
718.928	15881.235
719.056	15859.843
719.184	15911.588
719.313	15859.647
719.441	15948.275
719.569	15916.941
719.697	15967.039
719.825	16024.804
719.953	15931.804
720.081	15952.373
720.209	15947.373
720.338	15917.039
720.466	15955.176
720.594	16028.118
720.722	16072.333
720.850	16064.137
720.978	15926.863
721.106	15914.765
721.234	15989.020
721.363	15997.765
721.491	15998.686
721.619	15976.706
721.747	16004.980
721.875	16072.235
722.003	15952.314
722.131	16020.490
722.259	15971.039
722.388	16204.647
722.516	15990.294
722.644	16097.882
722.772	16021.235
722.900	16054.176
723.028	16128.196
723.156	16031.686
723.284	16079.725
723.413	16135.902
723.541	16057.765
723.669	16100.745
723.797	16069.000
723.925	16074.294
724.053	16125.647
724.181	16113.490
724.309	16257.118
724.438	16206.353
724.566	16230.569
724.694	16172.255
724.822	16129.824
724.950	16294.824
725.078	16192.549
725.206	16225.843
725.334	16253.745
725.463	16220.314
725.591	16353.333
725.719	16441.020
725.847	16312.686
725.975	16311.275
726.103	16384.451
726.231	16399.667
726.359	16378.882
726.488	16609.510
726.616	16389.078
726.744	16430.471
726.872	16476.471
727.000	16553.451
727.128	16525.333
727.256	16605.765
727.384	16617.118
727.513	16563.980
727.641	16582.412
727.769	16618.196
727.897	16641.118
728.025	16624.451
728.153	16683.647
728.281	16731.510
728.409	16712.176
728.538	16762.569
728.666	16756.294
728.794	16717.882
728.922	16786.098
729.050	16717.078
729.178	16820.725
729.306	16788.412
729.434	16883.392
729.563	16843.314
729.691	16896.490
729.819	16942.137
729.947	17000.667
730.075	16986.608
730.203	16953.765
730.331	17005.882
730.459	16968.804
730.588	16963.235
730.716	17066.549
730.844	17083.980
730.972	17116.020
731.100	17126.137
731.228	17211.686
731.356	17223.627
731.484	17225.059
731.613	17283.451
731.741	17248.529
731.869	17358.059
731.997	17396.725
732.125	17471.353
732.253	17519.686
732.381	17477.686
732.509	17512.843
732.638	17503.980
732.766	17459.471
732.894	17639.020
733.022	17645.549
733.150	17667.314
733.278	17748.314
733.406	17725.588
733.534	17804.745
733.663	17783.039
733.791	17880.078
733.919	17884.235
734.047	17894.882
734.175	17997.275
734.303	17933.255
734.431	17919.843
734.559	18004.294
734.688	18021.216
734.816	18032.745
734.944	18092.039
735.072	18099.627
735.200	18119.608
735.328	18066.902
735.456	18144.961
735.584	18179.039
735.713	18247.333
735.841	18239.314
735.969	18458.039
736.097	18220.098
736.225	18201.392
736.353	18275.608
736.481	18270.706
736.609	18318.098
736.738	18308.118
736.866	18308.216
736.994	18356.196
737.122	18370.412
737.250	18400.588
737.378	18340.392
737.506	18301.725
737.634	18339.510
737.763	18407.451
737.891	18463.255
738.019	18338.059
738.147	18505.980
738.275	18315.627
738.403	18373.235
738.531	18409.627
738.659	18371.706
738.788	18398.392
738.916	18429.725
739.044	18484.020
739.172	18329.412
739.300	18378.882
739.428	18316.588
739.556	18278.608
739.684	18254.902
739.813	18393.392
739.941	18324.804
740.069	18337.078
740.197	18298.275
740.325	18221.882
740.453	18360.235
740.581	18270.059
740.709	18246.176
740.838	18208.922
740.966	18195.824
741.094	18217.608
741.222	18189.686
741.350	18341.608
741.478	18217.392
741.606	18177.078
741.734	18152.765
741.863	18231.137
741.991	18168.882
742.119	18251.765
742.247	18359.686
742.375	18186.608
742.503	18204.314
742.631	18179.529
742.759	18231.569
742.888	18272.863
743.016	18335.000
743.144	18199.627
743.272	18266.510
743.400	18299.922
743.528	18257.157
743.656	18385.863
743.784	18514.863
743.913	18361.412
744.041	18342.078
744.169	18403.863
744.297	18607.000
744.425	18425.706
744.553	18431.451
744.681	18422.353
744.809	18437.667
744.938	18450.451
745.066	18402.098
745.194	18462.255
745.322	18494.882
745.450	18411.510
745.578	18476.490
745.706	18456.431
745.834	18452.510
745.963	18425.137
746.091	18501.020
746.219	18509.843
746.347	18510.431
746.475	18457.392
746.603	18466.412
746.731	18548.373
746.859	18593.078
746.988	18585.353
747.116	18659.882
747.244	18654.686
747.372	18744.471
747.500	18706.392
747.628	18770.275
747.756	18815.824
747.884	18831.392
748.013	18937.373
748.141	18864.176
748.269	18932.588
748.397	18973.863
748.525	18960.118
748.653	19033.255
748.781	19081.451
748.909	19088.627
749.038	19154.549
749.166	19218.980
749.294	19317.000
749.422	19268.059
749.550	19252.941
749.678	19231.098
749.806	19378.294
749.934	19407.922
750.063	19380.588
750.191	19501.431
750.319	19365.549
750.447	19465.725
750.575	19479.843
750.703	19400.020
750.831	19476.059
750.959	19508.843
751.088	19522.804
751.216	19494.235
751.344	19513.647
751.472	19516.078
751.600	19601.020
751.728	19538.980
751.856	19527.804
751.984	19569.373
752.113	19572.118
752.241	19469.490
752.369	19520.804
752.497	19638.863
752.625	19518.647
752.753	19456.412
752.881	19537.118
753.009	19524.039
753.138	19471.059
753.266	19531.863
753.394	19564.902
753.522	19626.216
753.650	19535.863
753.778	19554.059
753.906	19482.333
754.034	19618.922
754.163	19625.725
754.291	19782.353
754.419	19598.706
754.547	19615.216
754.675	19604.431
754.803	19608.294
754.931	19540.824
755.059	19588.627
755.188	19660.196
755.316	19621.275
755.444	19706.392
755.572	19684.059
755.700	19636.078
755.828	19688.431
755.956	19756.902
756.084	19781.255
756.213	19737.922
756.341	19776.686
756.469	19833.059
756.597	19877.333
756.725	19859.686
756.853	19903.882
756.981	19910.059
757.109	19880.059
757.238	19936.588
757.366	19985.314
757.494	19966.275
757.622	19971.510
757.750	19999.196
757.878	20000.216
758.006	19940.824
758.134	20050.627
758.263	20060.765
758.391	20136.294
758.519	20133.961
758.647	20221.686
758.775	20229.608
758.903	20229.353
759.031	20291.451
759.159	20271.216
759.288	20417.706
759.416	20298.569
759.544	20399.804
759.672	20443.510
759.800	20480.275
759.928	20416.725
760.056	20589.490
760.184	20455.431
760.313	20474.020
760.441	20554.333
760.569	20606.216
760.697	20624.725
760.825	20669.706
760.953	20733.157
761.081	20720.078
761.209	20657.941
761.338	20647.745
761.466	20727.000
761.594	20833.294
761.722	20913.804
761.850	20730.176
761.978	20721.902
762.106	20835.471
762.234	20841.235
762.363	20809.255
762.491	20862.569
762.619	20940.922
762.747	20938.314
762.875	20915.314
763.003	20953.667
763.131	20882.902
763.259	20867.471
763.388	20950.353
763.516	20963.431
763.644	20951.255
763.772	21007.529
763.900	21093.725
764.028	21124.961
764.156	21028.000
764.284	21117.294
764.413	21052.588
764.541	21186.922
764.669	21073.980
764.797	21166.451
764.925	21182.745
765.053	21088.078
765.181	21185.922
765.309	21200.294
765.438	21229.961
765.566	21256.745
765.694	21216.353
765.822	21451.647
765.950	21246.059
766.078	21180.510
766.206	21143.667
766.334	21232.431
766.463	21178.039
766.591	21227.373
766.719	21203.902
766.847	21227.490
766.975	21243.196
767.103	21133.039
767.231	21237.333
767.359	21203.549
767.488	21204.843
767.616	21176.902
767.744	21221.863
767.872	21250.824
768.000	21258.902
768.128	21252.020
768.256	21254.725
768.384	21263.510
768.513	21273.176
768.641	21302.431
768.769	21318.961
768.897	21351.686
769.025	21457.588
769.153	21340.039
769.281	21375.235
769.409	21324.000
769.538	21267.471
769.666	21322.039
769.794	21308.608
769.922	21333.549
770.050	21257.745
770.178	21282.431
770.306	21298.314
770.434	21234.549
770.563	21270.039
770.691	21296.353
770.819	21260.922
770.947	21326.353
771.075	21232.255
771.203	21271.275
771.331	21413.078
771.459	21293.451
771.588	21308.373
771.716	21296.196
771.844	21290.529
771.972	21387.980
772.100	21284.255
772.228	21237.510
772.356	21332.745
772.484	21208.882
772.613	21245.725
772.741	21264.176
772.869	21319.196
772.997	21281.961
773.125	21297.039
773.253	21266.431
773.381	21168.686
773.509	21210.000
773.638	21199.725
773.766	21178.020
773.894	21153.196
774.022	21218.569
774.150	21127.941
774.278	21164.059
774.406	21168.235
774.534	21164.392
774.663	21075.647
774.791	21048.961
774.919	21135.471
775.047	21091.118
775.175	21113.431
775.303	21119.941
775.431	20961.451
775.559	20955.667
775.688	20948.804
775.816	21006.020
775.944	20966.235
776.072	21074.235
776.200	20952.255
776.328	20943.176
776.456	20887.059
776.584	20896.176
776.713	20936.608
776.841	20944.961
776.969	20947.176
777.097	20898.961
777.225	20974.118
777.353	20926.686
777.481	20867.608
777.609	20888.608
777.738	20878.275
777.866	20909.549
777.994	20807.804
778.122	20921.078
778.250	21018.118
778.378	20890.529
778.506	20825.078
778.634	20781.275
778.763	20963.255
778.891	20878.647
779.019	20901.412
779.147	20890.471
779.275	20927.608
779.403	20909.275
779.531	20901.843
779.659	20862.137
779.788	20852.627
779.916	20801.137
780.044	20744.333
780.172	20743.706
780.300	20747.588
780.428	20804.098
780.556	20878.784
780.684	20734.235
780.813	20680.667
780.941	20594.255
781.069	20546.784
781.197	20658.529
781.325	20707.157
781.453	20565.549
781.581	20568.255
781.709	20539.627
781.838	20528.588
781.966	20458.176
782.094	20383.804
782.222	20505.902
782.350	20353.098
782.478	20372.863
782.606	20358.824
782.734	20326.431
782.863	20291.804
782.991	20264.078
783.119	20255.824
783.247	20221.078
783.375	20270.039
783.503	20260.549
783.631	20216.255
783.759	20134.412
783.888	20200.510
784.016	20162.431
784.144	20055.098
784.272	20036.588
784.400	20062.961
784.528	19995.490
784.656	20048.627
784.784	19979.627
784.913	19847.980
785.041	19879.863
785.169	19809.255
785.297	19823.882
785.425	19811.980
785.553	19735.314
785.681	19776.255
785.809	19860.824
785.938	19757.235
786.066	19723.588
786.194	19670.961
786.322	19651.706
786.450	19551.922
786.578	19549.000
786.706	19582.275
786.834	19532.078
786.963	19615.196
787.091	19493.392
787.219	19477.902
787.347	19465.569
787.475	19457.725
787.603	19455.216
787.731	19383.431
787.859	19464.353
787.988	19544.176
788.116	19450.196
788.244	19423.627
788.372	19282.824
788.500	19347.765
788.628	19329.235
788.756	19270.471
788.884	19370.647
789.013	19270.196
789.141	19236.490
789.269	19281.765
789.397	19199.196
789.525	19243.608
789.653	19141.176
789.781	19122.196
789.909	19084.451
790.038	19073.922
790.166	18906.569
790.294	18867.902
790.422	18820.804
790.550	18750.667
790.678	18814.667
790.806	18686.765
790.934	18762.588
791.063	18668.373
791.191	18646.392
791.319	18570.627
791.447	18528.529
791.575	18474.745
791.703	18478.863
791.831	18503.078
791.959	18302.686
792.088	18438.137
792.216	18293.882
792.344	18282.569
792.472	18136.765
792.600	18218.647
792.728	18080.941
792.856	18214.078
792.984	18083.765
793.113	18111.804
793.241	18056.824
793.369	18068.549
793.497	18056.098
793.625	18095.353
793.753	18034.980
793.881	17924.882
794.009	17952.667
794.138	17830.294
794.266	17872.706
794.394	17820.941
794.522	17819.098
794.650	17765.824
794.778	17855.431
794.906	17764.078
795.034	17765.569
795.163	17649.863
795.291	17760.275
795.419	17895.765
795.547	17754.314
795.675	17737.314
795.803	17773.941
795.931	17618.725
796.059	17598.020
796.188	17642.196
796.316	17556.824
796.444	17638.627
796.572	17549.196
796.700	17617.804
796.828	17503.196
796.956	17493.294
797.084	17441.961
797.213	17366.490
797.341	17334.431
797.469	17297.686
797.597	17301.157
797.725	17225.941
797.853	17118.039
797.981	17096.725
798.109	17140.137
798.238	16995.392
798.366	17074.020
798.494	16883.863
798.622	17007.333
798.750	16941.490
798.878	16914.451
799.006	16889.275
799.134	16791.490
799.263	16772.961
799.391	16692.000
799.519	16669.588
799.647	16642.588
799.775	16621.196
799.903	16606.098
800.031	16542.667
800.159	16548.412
800.288	16505.667
800.416	16444.451
800.544	16447.000
800.672	16353.549
800.800	16373.980
800.928	16341.941
801.056	16332.588
801.184	16321.294
801.313	16277.333
801.441	16255.804
801.569	16255.784
801.697	16184.353
801.825	16212.608
801.953	16210.804
802.081	16208.216
802.209	16159.137
802.338	16145.941
802.466	16055.137
802.594	16081.373
802.722	16062.745
802.850	15975.176
802.978	15980.647
803.106	15958.941
803.234	15981.333
803.363	15981.392
803.491	15950.569
803.619	15924.137
803.747	15863.373
803.875	15803.588
804.003	15788.725
804.131	15812.941
804.259	15767.745
804.388	15668.196
804.516	15688.961
804.644	15691.725
804.772	15670.412
804.900	15682.765
805.028	15558.235
805.156	15566.392
805.284	15651.314
805.413	15613.216
805.541	15594.078
805.669	15544.275
805.797	15560.255
805.925	15477.647
806.053	15453.824
806.181	15489.275
806.309	15424.431
806.438	15403.510
806.566	15432.706
806.694	15406.922
806.822	15323.392
806.950	15311.608
807.078	15210.255
807.206	15327.314
807.334	15270.941
807.463	15216.176
807.591	15151.392
807.719	15220.765
807.847	15190.667
807.975	15088.725
808.103	15000.216
808.231	15059.196
808.359	14997.275
808.488	14951.431
808.616	14951.039
808.744	14912.569
808.872	14864.902
809.000	14810.137
809.128	14923.922
809.256	14688.216
809.384	14687.745
809.513	14576.137
809.641	14617.608
809.769	14544.765
809.897	14615.431
810.025	14524.353
810.153	14569.176
810.281	14567.980
810.409	14515.824
810.538	14501.471
810.666	14442.373
810.794	14480.824
810.922	14510.686
811.050	14500.078
811.178	14455.000
811.306	14389.255
811.434	14466.098
811.563	14352.314
811.691	14363.980
811.819	14320.667
811.947	14357.431
812.075	14292.216
812.203	14331.039
812.331	14217.196
812.459	14234.882
812.588	14229.451
812.716	14164.039
812.844	14107.118
812.972	14054.412
813.100	14033.706
813.228	14020.098
813.356	13944.098
813.484	13996.294
813.613	13950.392
813.741	13890.235
813.869	13087.627
