spectrometer_90_70nm_einzel_at_650.00nm_cut_at_1184.50Y_01.dat
02.05.2022
11:40:41
cut middle at Y: 1184.50
top cursor: 1210 down cursor: 1159 mean of: 51 lines , 2560 datapoints
wavelength(nm)	intensity[arb. units]
485.997	6629.941
486.125	6059.216
486.253	5927.216
486.381	5902.157
486.510	5960.157
486.638	6042.843
486.766	6032.667
486.894	6066.098
487.022	6133.373
487.150	6126.667
487.278	6145.294
487.406	6110.196
487.535	6161.510
487.663	6241.176
487.791	6217.294
487.919	6260.882
488.047	6266.255
488.175	6336.863
488.303	6293.196
488.431	6347.863
488.560	6340.569
488.688	6374.922
488.816	6400.529
488.944	6446.765
489.072	6418.627
489.200	6461.275
489.328	6510.647
489.456	6540.373
489.585	6531.294
489.713	6537.510
489.841	6518.137
489.969	6539.608
490.097	6553.020
490.225	6524.176
490.353	6621.745
490.481	6559.412
490.610	6565.627
490.738	6549.059
490.866	6632.843
490.994	6550.863
491.122	6628.216
491.250	6591.490
491.378	6613.353
491.506	6693.412
491.635	6604.098
491.763	6624.333
491.891	6619.725
492.019	6715.980
492.147	6652.255
492.275	6626.824
492.403	6626.863
492.531	6823.706
492.660	6690.294
492.788	6721.255
492.916	6758.157
493.044	6703.961
493.172	6748.275
493.300	6733.235
493.428	6783.765
493.556	6798.647
493.685	6859.392
493.813	6814.098
493.941	6861.000
494.069	6883.078
494.197	6918.039
494.325	6978.529
494.453	7119.843
494.581	7020.235
494.710	7083.353
494.838	7081.667
494.966	7188.000
495.094	7108.412
495.222	7258.902
495.350	7209.902
495.478	7235.176
495.606	7284.725
495.735	7286.804
495.863	7338.235
495.991	7360.157
496.119	7378.980
496.247	7404.137
496.375	7393.020
496.503	7416.490
496.631	7412.961
496.760	7392.980
496.888	7393.784
497.016	7471.706
497.144	7434.941
497.272	7410.275
497.400	7448.941
497.528	7400.863
497.656	7416.510
497.785	7421.216
497.913	7394.176
498.041	7447.706
498.169	7417.039
498.297	7370.078
498.425	7530.255
498.553	7383.000
498.681	7404.706
498.810	7478.667
498.938	7390.549
499.066	7431.255
499.194	7480.157
499.322	7462.686
499.450	7439.784
499.578	7436.255
499.706	7474.784
499.835	7499.216
499.963	7485.725
500.091	7517.471
500.219	7492.471
500.347	7553.333
500.475	7542.157
500.603	7530.706
500.731	7569.824
500.860	7594.020
500.988	7629.176
501.116	7617.137
501.244	7687.980
501.372	7750.843
501.500	7736.431
501.628	7750.216
501.756	7749.118
501.885	7831.902
502.013	7791.294
502.141	7838.314
502.269	7813.353
502.397	7986.569
502.525	7924.529
502.653	8015.882
502.781	7982.804
502.910	8022.961
503.038	8026.176
503.166	8036.627
503.294	8019.980
503.422	8098.000
503.550	8081.471
503.678	8079.412
503.806	8092.745
503.935	8071.353
504.063	8113.843
504.191	8126.765
504.319	8105.824
504.447	8087.373
504.575	8094.843
504.703	8144.412
504.831	8043.078
504.960	8031.882
505.088	8111.098
505.216	8147.353
505.344	8175.725
505.472	8108.235
505.600	8085.059
505.728	8208.667
505.856	8207.078
505.985	8209.922
506.113	8186.863
506.241	8223.725
506.369	8197.647
506.497	8213.353
506.625	8279.490
506.753	8252.569
506.881	8289.706
507.010	8299.137
507.138	8257.098
507.266	8350.392
507.394	8342.784
507.522	8456.000
507.650	8362.961
507.778	8383.843
507.906	8461.490
508.035	8472.294
508.163	8535.902
508.291	8488.627
508.419	8630.824
508.547	8612.059
508.675	8645.314
508.803	8593.804
508.931	8625.157
509.060	8651.824
509.188	8655.922
509.316	8639.235
509.444	8660.314
509.572	8800.843
509.700	8690.667
509.828	8774.588
509.956	8802.980
510.085	8706.706
510.213	8752.255
510.341	8726.941
510.469	8792.647
510.597	8828.804
510.725	8766.255
510.853	8899.843
510.981	8861.490
511.110	8816.235
511.238	8797.020
511.366	8868.275
511.494	8889.471
511.622	8896.157
511.750	8922.471
511.878	8955.078
512.006	8904.176
512.135	8976.765
512.263	8926.176
512.391	8992.157
512.519	8986.882
512.647	8952.902
512.775	8988.824
512.903	8989.529
513.031	8955.784
513.160	8995.863
513.288	9069.667
513.416	9004.196
513.544	9014.196
513.672	8980.824
513.800	9087.647
513.928	9016.471
514.056	9020.510
514.185	9010.902
514.313	8965.490
514.441	9076.176
514.569	9026.255
514.697	9049.196
514.825	8979.235
514.953	9008.804
515.081	8957.608
515.210	8944.863
515.338	9056.275
515.466	8922.176
515.594	8988.216
515.722	8927.471
515.850	8957.020
515.978	8887.843
516.106	8951.647
516.235	8914.451
516.363	8945.608
516.491	8955.333
516.619	8968.804
516.747	9046.725
516.875	8995.216
517.003	8967.333
517.131	9025.863
517.260	8955.627
517.388	9012.824
517.516	9053.118
517.644	9073.667
517.772	9100.059
517.900	9074.745
518.028	9141.176
518.156	9150.020
518.284	9151.510
518.413	9182.353
518.541	9233.196
518.669	9279.922
518.797	9306.863
518.925	9262.118
519.053	9309.020
519.181	9298.980
519.309	9386.196
519.438	9402.000
519.566	9437.765
519.694	9415.157
519.822	9508.922
519.950	9476.902
520.078	9520.686
520.206	9574.627
520.334	9616.510
520.463	9540.157
520.591	9605.647
520.719	9622.980
520.847	9593.922
520.975	9579.745
521.103	9689.098
521.231	9591.725
521.359	9762.627
521.488	9670.686
521.616	9708.020
521.744	9596.176
521.872	9684.490
522.000	9572.078
522.128	9567.333
522.256	9588.333
522.384	9586.961
522.513	9523.471
522.641	9520.882
522.769	9611.471
522.897	9521.490
523.025	9500.549
523.153	9473.627
523.281	9529.784
523.409	9468.098
523.538	9481.804
523.666	9430.353
523.794	9485.255
523.922	9433.608
524.050	9417.373
524.178	9444.059
524.306	9436.314
524.434	9487.000
524.563	9525.451
524.691	9643.412
524.819	9497.255
524.947	9538.039
525.075	9545.275
525.203	9599.392
525.331	9583.745
525.459	9695.765
525.588	9649.373
525.716	9694.000
525.844	9667.333
525.972	9751.882
526.100	9749.412
526.228	9815.745
526.356	9789.667
526.484	9930.235
526.613	9856.255
526.741	9923.941
526.869	9965.176
526.997	10010.824
527.125	10065.118
527.253	10050.510
527.381	10159.706
527.509	10110.392
527.638	10201.294
527.766	10294.725
527.894	10255.980
528.022	10353.216
528.150	10306.196
528.278	10414.039
528.406	10375.706
528.534	10394.686
528.663	10396.059
528.791	10566.196
528.919	10430.431
529.047	10586.196
529.175	10456.961
529.303	10441.961
529.431	10441.039
529.559	10520.804
529.688	10472.353
529.816	10486.431
529.944	10598.706
530.072	10536.118
530.200	10534.039
530.328	10544.569
530.456	10599.000
530.584	10614.902
530.713	10627.078
530.841	10603.980
530.969	10609.686
531.097	10580.059
531.225	10560.333
531.353	10717.333
531.481	10602.941
531.609	10733.745
531.738	10569.706
531.866	10720.118
531.994	10638.608
532.122	10762.529
532.250	10657.706
532.378	10585.451
532.506	10595.863
532.634	10588.373
532.763	10530.686
532.891	10546.745
533.019	10547.784
533.147	10513.745
533.275	10471.667
533.403	10571.863
533.531	10543.569
533.659	10558.020
533.788	10571.314
533.916	10537.824
534.044	10644.431
534.172	10639.961
534.300	10588.902
534.428	10569.569
534.556	10777.765
534.684	10590.431
534.813	10586.510
534.941	10594.078
535.069	10606.392
535.197	10591.706
535.325	10595.647
535.453	10539.451
535.581	10704.882
535.709	10571.980
535.838	10575.294
535.966	10611.588
536.094	10635.392
536.222	10590.706
536.350	10587.451
536.478	10577.941
536.606	10699.275
536.734	10677.569
536.863	10671.431
536.991	10710.745
537.119	10715.667
537.247	10710.824
537.375	10844.824
537.503	10679.431
537.631	10704.275
537.759	10672.471
537.888	10659.333
538.016	10890.196
538.144	10751.255
538.272	10746.431
538.400	10797.412
538.528	10742.843
538.656	10816.176
538.784	10832.039
538.913	10912.725
539.041	10868.431
539.169	10875.745
539.297	10863.373
539.425	10983.137
539.553	10949.275
539.681	11021.961
539.809	11016.333
539.938	11030.176
540.066	11075.529
540.194	11097.451
540.322	11227.196
540.450	11183.471
540.578	11170.588
540.706	11219.255
540.834	11255.353
540.963	11312.549
541.091	11291.000
541.219	11300.627
541.347	11417.725
541.475	11345.392
541.603	11388.549
541.731	11373.922
541.859	11391.941
541.988	11430.510
542.116	11635.118
542.244	11471.941
542.372	11623.784
542.500	11484.529
542.628	11530.922
542.756	11540.098
542.884	11551.353
543.013	11537.275
543.141	11581.490
543.269	11600.608
543.397	11471.902
543.525	11511.294
543.653	11596.392
543.781	11490.529
543.909	11484.392
544.038	11571.471
544.166	11551.725
544.294	11626.157
544.422	11443.255
544.550	11497.941
544.678	11540.647
544.806	11438.333
544.934	11477.451
545.063	11526.549
545.191	11610.039
545.319	11488.255
545.447	11372.961
545.575	11401.902
545.703	11509.275
545.831	11450.020
545.959	11397.863
546.088	11370.353
546.216	11378.784
546.344	11451.373
546.472	11573.196
546.600	11397.902
546.728	11415.118
546.856	11441.020
546.984	11374.725
547.113	11475.412
547.241	11503.451
547.369	11558.569
547.497	11529.510
547.625	11548.392
547.753	11488.020
547.881	11468.392
548.009	11447.863
548.138	11467.706
548.266	11402.490
548.394	11461.333
548.522	11345.765
548.650	11466.412
548.778	11375.686
548.906	11319.647
549.034	11390.725
549.163	11251.941
549.291	11232.980
549.419	11266.020
549.547	11510.039
549.675	11445.412
549.803	11475.961
549.931	11567.176
550.059	11619.608
550.188	11770.686
550.316	11770.549
550.444	11855.510
550.572	11837.137
550.700	11994.157
550.828	12032.275
550.956	12048.275
551.084	12135.059
551.213	12107.275
551.341	12161.863
551.469	12173.686
551.597	12232.941
551.725	12293.922
551.853	12226.882
551.981	12292.608
552.109	12281.549
552.238	12302.490
552.366	12318.000
552.494	12304.353
552.622	12305.608
552.750	12354.902
552.878	12329.412
553.006	12441.392
553.134	12363.373
553.263	12317.137
553.391	12409.667
553.519	12571.137
553.647	12467.902
553.775	12388.000
553.903	12542.863
554.031	12489.647
554.159	12426.431
554.288	12528.451
554.416	12498.373
554.544	12527.608
554.672	12460.373
554.800	12523.020
554.928	12454.980
555.056	12473.588
555.184	12495.373
555.313	12498.510
555.441	12477.490
555.569	12464.569
555.697	12541.294
555.825	12497.922
555.953	12560.039
556.081	12420.431
556.209	12508.118
556.338	12558.706
556.466	12674.314
556.594	12528.608
556.722	12606.627
556.850	12655.235
556.978	12500.392
557.106	12587.922
557.234	12551.627
557.363	12637.725
557.491	12628.196
557.619	12651.020
557.747	12671.804
557.875	12609.980
558.003	12682.471
558.131	12687.275
558.259	12668.941
558.388	12687.784
558.516	12748.725
558.644	12731.980
558.772	12845.059
558.900	12768.333
559.028	12747.196
559.156	12790.137
559.284	12761.490
559.413	12804.843
559.541	12840.118
559.669	12883.608
559.797	12982.510
559.925	12867.020
560.053	12975.686
560.181	12914.176
560.309	12952.451
560.438	12990.157
560.566	12994.176
560.694	12983.784
560.822	13139.647
560.950	12994.431
561.078	13040.529
561.206	13173.922
561.334	13001.000
561.463	13053.176
561.591	13128.431
561.719	13057.451
561.847	13127.529
561.975	13042.353
562.103	13163.078
562.231	13077.137
562.359	13023.275
562.488	13106.490
562.616	13074.314
562.744	13127.765
562.872	13078.000
563.000	13009.667
563.128	13056.529
563.256	13054.098
563.384	13170.255
563.513	13015.275
563.641	13055.824
563.769	13108.549
563.897	13060.020
564.025	13088.176
564.153	13064.941
564.281	13198.745
564.409	13043.098
564.538	13026.118
564.666	13107.373
564.794	13181.588
564.922	13137.255
565.050	13233.333
565.178	13147.333
565.306	13222.529
565.434	13270.176
565.563	13380.020
565.691	13293.235
565.819	13502.843
565.947	13330.922
566.075	13424.706
566.203	13461.765
566.331	13398.412
566.459	14288.137
566.588	13456.157
566.716	13476.059
566.844	13518.686
566.972	13679.902
567.100	13705.549
567.228	13782.294
567.356	13828.255
567.484	13714.745
567.613	13820.510
567.741	13850.882
567.869	13866.431
567.997	13896.196
568.125	14054.980
568.253	14104.039
568.381	14082.098
568.509	14096.059
568.638	14125.039
568.766	14164.157
568.894	14163.843
569.022	14177.569
569.150	14264.804
569.278	14210.686
569.406	14358.980
569.534	14362.078
569.663	14292.529
569.791	14365.373
569.919	14385.255
570.047	14556.235
570.175	14343.294
570.303	14400.392
570.431	14380.314
570.559	14528.510
570.688	14569.235
570.816	14426.843
570.944	14517.353
571.072	14484.059
571.200	14433.902
571.328	14513.510
571.456	14576.078
571.584	14536.882
571.713	14524.745
571.841	14540.627
571.969	14683.725
572.097	14648.157
572.225	14453.569
572.353	14492.098
572.481	14457.000
572.609	14483.275
572.738	14445.039
572.866	14434.784
572.994	14415.353
573.122	14396.765
573.250	14403.863
573.378	14328.627
573.506	14351.333
573.634	14413.078
573.763	14300.902
573.891	14333.078
574.019	14388.882
574.147	14269.529
574.275	14327.490
574.403	14337.902
574.531	14252.137
574.659	14245.118
574.788	14268.275
574.916	14331.843
575.044	14216.667
575.172	14186.902
575.300	14133.510
575.428	14097.020
575.556	14118.529
575.684	14104.118
575.813	14040.118
575.941	14049.961
576.069	13945.490
576.197	14027.078
576.325	13947.647
576.453	13954.176
576.581	13954.275
576.709	13928.137
576.838	13931.922
576.966	14020.549
577.094	14147.098
577.222	14023.020
577.350	13910.608
577.478	14007.529
577.606	13985.667
577.734	14006.216
577.863	14070.980
577.991	14110.098
578.119	14190.745
578.247	14146.059
578.375	14250.980
578.503	14135.725
578.631	14232.098
578.759	14285.353
578.888	14380.039
579.016	14236.353
579.144	14287.961
579.272	14346.510
579.400	14354.373
579.528	14413.784
579.656	14494.510
579.784	14396.725
579.913	14474.078
580.041	14664.235
580.169	14572.431
580.297	14587.294
580.425	14601.490
580.553	14615.608
580.681	14655.392
580.809	14665.059
580.938	14734.706
581.066	14811.392
581.194	14774.608
581.322	14755.392
581.450	14825.392
581.578	14846.412
581.706	14827.235
581.834	14866.216
581.963	14857.098
582.091	14849.235
582.219	14849.039
582.347	14903.490
582.475	14920.510
582.603	14956.176
582.731	15028.078
582.859	15006.765
582.988	15053.667
583.116	15047.549
583.244	15053.235
583.372	15096.098
583.500	15123.412
583.628	15233.667
583.756	15158.784
583.884	15166.961
584.013	15264.137
584.141	15183.843
584.269	15233.804
584.397	15284.843
584.525	15276.569
584.653	15230.549
584.781	15285.706
584.909	15290.980
585.038	15304.863
585.166	15270.333
585.294	15371.314
585.422	15390.824
585.550	15348.137
585.678	15339.255
585.806	15387.569
585.934	15390.627
586.063	15434.471
586.191	15432.373
586.319	15456.255
586.447	15426.392
586.575	15410.039
586.703	15472.039
586.831	15470.039
586.959	15475.765
587.088	15413.686
587.216	15496.353
587.344	15454.235
587.472	15607.020
587.600	15451.843
587.728	15442.608
587.856	15430.255
587.984	15459.510
588.113	15538.647
588.241	15500.137
588.369	15520.667
588.497	15473.529
588.625	15455.059
588.753	15685.510
588.881	15495.078
589.009	15522.627
589.138	15548.784
589.266	15496.569
589.394	15542.902
589.522	15527.490
589.650	15680.529
589.778	15626.196
589.906	15672.118
590.034	15600.882
590.163	15610.922
590.291	15692.784
590.419	15639.902
590.547	15715.196
590.675	15683.392
590.803	15716.275
590.931	15717.059
591.059	15714.255
591.188	15686.471
591.316	15707.980
591.444	15654.157
591.572	15836.667
591.700	15787.922
591.828	15731.608
591.956	15794.000
592.084	15781.725
592.213	15815.569
592.341	15759.471
592.469	15839.275
592.597	15840.196
592.725	15746.627
592.853	15800.137
592.981	15819.686
593.109	15825.294
593.238	15725.176
593.366	15736.392
593.494	15758.431
593.622	15721.843
593.750	15750.020
593.878	15822.902
594.006	15721.431
594.134	15725.863
594.263	15788.863
594.391	15700.627
594.519	15710.725
594.647	15693.843
594.775	15651.922
594.903	15646.863
595.031	15693.843
595.159	15730.314
595.288	15652.529
595.416	15672.176
595.544	15660.804
595.672	15578.588
595.800	15716.922
595.928	15614.863
596.056	15647.333
596.184	15582.745
596.313	15672.588
596.441	15580.843
596.569	15644.980
596.697	15525.941
596.825	15519.333
596.953	15506.745
597.081	15499.392
597.209	15459.020
597.338	15500.647
597.466	15466.216
597.594	15441.980
597.722	15610.588
597.850	15447.725
597.978	15487.824
598.106	15572.235
598.234	15613.784
598.363	15488.255
598.491	15668.882
598.619	15557.686
598.747	15607.412
598.875	15726.333
599.003	15677.196
599.131	15767.275
599.259	15780.000
599.388	15763.922
599.516	15832.275
599.644	15934.255
599.772	15954.039
599.900	15864.176
600.028	15921.510
600.156	16045.882
600.284	15948.020
600.413	16006.235
600.541	16102.275
600.669	16152.373
600.797	16041.569
600.925	16116.588
601.053	16124.157
601.181	16164.686
601.309	16090.118
601.438	16088.647
601.566	16144.706
601.694	16179.490
601.822	16374.471
601.950	16152.255
602.078	16246.333
602.206	16284.569
602.334	16268.255
602.463	16303.961
602.591	16380.098
602.719	16341.961
602.847	16545.392
602.975	16396.549
603.103	16441.588
603.231	16484.255
603.359	16412.098
603.488	16384.431
603.616	16438.235
603.744	16396.118
603.872	16461.314
604.000	16463.569
604.128	16514.275
604.256	16496.667
604.384	16478.902
604.513	16606.510
604.641	16597.627
604.769	16618.196
604.897	16526.098
605.025	16468.941
605.153	16502.510
605.281	16573.804
605.409	16468.431
605.538	16506.059
605.666	16519.098
605.794	16532.353
605.922	16543.843
606.050	16471.745
606.178	16464.392
606.306	16479.882
606.434	16553.294
606.563	16494.804
606.691	16542.902
606.819	16479.137
606.947	16478.137
607.075	16503.333
607.203	16423.235
607.331	16437.118
607.459	16460.588
607.588	16374.686
607.716	16408.922
607.844	16466.078
607.972	16428.196
608.100	16375.941
608.228	16385.686
608.356	16378.471
608.484	16411.804
608.613	16387.294
608.741	16328.137
608.869	16339.549
608.997	16411.980
609.125	16401.608
609.253	16316.373
609.381	16326.431
609.509	16257.314
609.638	16303.431
609.766	16253.961
609.894	16267.255
610.022	16220.706
610.150	16352.235
610.278	16242.922
610.406	16220.667
610.534	16262.000
610.663	16169.961
610.791	16273.765
610.919	16139.196
611.047	16223.216
611.175	16175.490
611.303	16215.451
611.431	16257.412
611.559	16245.569
611.688	16218.176
611.816	16165.000
611.944	16217.471
612.072	16172.922
612.200	16200.294
612.328	16273.902
612.456	16171.667
612.584	16370.843
612.713	16165.078
612.841	16200.255
612.969	16156.863
613.097	16210.608
613.225	16185.412
613.353	16208.392
613.481	16159.647
613.609	16213.039
613.738	16183.529
613.866	16313.804
613.994	16255.510
614.122	16246.000
614.250	16292.686
614.378	16310.686
614.506	16276.412
614.634	16337.235
614.763	16334.000
614.891	16342.941
615.019	16373.118
615.147	16419.196
615.275	16371.255
615.403	16463.922
615.531	16485.039
615.659	16545.882
615.788	16457.098
615.916	16584.961
616.044	16521.647
616.172	16642.529
616.300	16503.529
616.428	16623.706
616.556	16567.275
616.684	16577.529
616.813	16541.471
616.941	16602.980
617.069	16572.765
617.197	16775.608
617.325	16639.843
617.453	16680.255
617.581	16708.961
617.709	16608.078
617.838	16674.000
617.966	16736.020
618.094	16674.275
618.222	16687.745
618.350	16732.706
618.478	16613.647
618.606	16833.137
618.734	16730.471
618.863	16763.529
618.991	16711.549
619.119	16696.431
619.247	16688.706
619.375	16682.686
619.503	16734.608
619.631	16811.196
619.759	16635.294
619.888	16628.784
620.016	16681.686
620.144	16756.392
620.272	16647.314
620.400	16700.314
620.528	16723.314
620.656	16788.647
620.784	16664.098
620.913	16666.863
621.041	16704.216
621.169	16742.255
621.297	16638.216
621.425	16725.745
621.553	16744.627
621.681	16820.392
621.809	16776.275
621.938	16766.745
622.066	16895.627
622.194	16789.549
622.322	16866.412
622.450	16870.412
622.578	16859.392
622.706	16818.020
622.834	16913.098
622.963	16951.176
623.091	16943.686
623.219	16941.627
623.347	17030.176
623.475	16956.922
623.603	16995.941
623.731	16996.765
623.859	17084.235
623.988	17126.745
624.116	17135.392
624.244	17187.275
624.372	17153.196
624.500	17176.706
624.628	17215.784
624.756	17234.843
624.884	17333.137
625.013	17437.118
625.141	17318.235
625.269	17239.941
625.397	17437.725
625.525	17444.275
625.653	17283.647
625.781	17524.431
625.909	17309.471
626.038	17376.137
626.166	17367.784
626.294	17359.412
626.422	17362.020
626.550	17458.980
626.678	17473.824
626.806	17375.941
626.934	17466.647
627.063	17450.314
627.191	17493.255
627.319	17513.333
627.447	17508.098
627.575	17531.176
627.703	17504.216
627.831	17556.588
627.959	17447.216
628.088	17552.647
628.216	17577.392
628.344	17453.961
628.472	17543.569
628.600	17666.157
628.728	17409.922
628.856	17437.824
628.984	17366.078
629.113	17407.490
629.241	17395.588
629.369	17400.000
629.497	17410.549
629.625	17322.686
629.753	17315.392
629.881	17325.255
630.009	17343.333
630.138	17230.039
630.266	17270.196
630.394	17405.627
630.522	17382.000
630.650	17192.529
630.778	17069.039
630.906	17109.980
631.034	17008.314
631.163	17137.549
631.291	17034.980
631.419	17046.118
631.547	16896.137
631.675	16905.902
631.803	16893.569
631.931	16984.255
632.059	16978.980
632.188	16886.275
632.316	16851.588
632.444	16896.922
632.572	16890.902
632.700	16855.706
632.828	16822.647
632.956	16740.490
633.084	16794.412
633.213	16845.451
633.341	16753.392
633.469	16766.157
633.597	16675.137
633.725	16652.490
633.853	16610.804
633.981	16665.608
634.109	16789.824
634.238	16594.608
634.366	16548.686
634.494	16556.412
634.622	16563.706
634.750	16536.255
634.878	16596.294
635.006	16591.412
635.134	16541.686
635.263	16563.706
635.391	16513.471
635.519	16503.118
635.647	16532.333
635.775	16482.608
635.903	16465.765
636.031	16375.569
636.159	16362.706
636.288	16384.078
636.416	16323.765
636.544	16382.255
636.672	16318.294
636.800	16400.059
636.928	16300.882
637.056	16444.824
637.184	16350.902
637.313	16324.392
637.441	16329.294
637.569	16478.059
637.697	16428.784
637.825	16352.510
637.953	16406.980
638.081	16374.078
638.209	16473.451
638.338	16479.275
638.466	16488.157
638.594	16512.510
638.722	16497.235
638.850	16560.353
638.978	16544.647
639.106	16540.863
639.234	16587.588
639.363	16528.569
639.491	16582.980
639.619	16696.980
639.747	16743.902
639.875	16651.373
640.003	16662.725
640.131	16750.745
640.259	16725.941
640.388	16785.451
640.516	16790.824
640.644	16829.627
640.772	16860.235
640.900	16865.235
641.028	16860.784
641.156	16843.196
641.284	16864.392
641.413	17035.569
641.541	16912.686
641.669	16904.706
641.797	16987.039
641.925	16955.216
642.053	17063.392
642.181	16982.294
642.309	16974.922
642.438	17081.647
642.566	17008.235
642.694	17090.216
642.822	16941.608
642.950	17021.275
643.078	17077.627
643.206	16968.510
643.334	17004.314
643.463	16996.373
643.591	16999.176
643.719	17022.843
643.847	17100.627
643.975	17081.471
644.103	16995.686
644.231	17077.784
644.359	17034.588
644.488	17096.941
644.616	17094.529
644.744	17112.627
644.872	17068.471
645.000	17172.510
645.128	17106.294
645.256	17026.529
645.384	17112.608
645.513	17039.333
645.641	17028.235
645.769	17086.725
645.897	17179.569
646.025	17117.824
646.153	17142.020
646.281	17183.471
646.409	17033.647
646.538	17185.608
646.666	17063.863
646.794	17099.412
646.922	17111.098
647.050	17128.863
647.178	17040.745
647.306	17293.078
647.434	17058.941
647.563	17089.255
647.691	17106.765
647.819	17180.059
647.947	17077.471
648.075	17102.863
648.203	17155.275
648.331	17111.059
648.459	17050.353
648.588	17010.961
648.716	17160.627
648.844	17101.647
648.972	17055.686
649.100	17115.137
649.228	17111.294
649.356	17172.314
649.484	17072.961
649.613	17141.529
649.741	17036.196
649.869	17066.353
649.997	17117.961
650.125	17106.824
650.253	17061.000
650.381	17065.373
650.509	17045.882
650.638	17033.882
650.766	17202.157
650.894	17064.333
651.022	17025.588
651.150	17072.490
651.278	17078.275
651.406	17052.902
651.534	17064.902
651.663	17068.902
651.791	17283.275
651.919	17091.137
652.047	17147.039
652.175	17151.353
652.303	17158.804
652.431	17145.804
652.559	17270.902
652.688	17157.549
652.816	17239.941
652.944	17203.314
653.072	17228.373
653.200	17237.941
653.328	17227.627
653.456	17198.235
653.584	17310.353
653.713	17251.647
653.841	17276.431
653.969	17328.059
654.097	17328.706
654.225	17309.588
654.353	17412.902
654.481	17397.098
654.609	17475.686
654.738	17487.118
654.866	17486.431
654.994	17608.608
655.122	17593.549
655.250	17729.804
655.378	17519.235
655.506	17649.216
655.634	17717.176
655.763	17506.392
655.891	17540.294
656.019	17489.902
656.147	17567.510
656.275	17593.627
656.403	17571.471
656.531	17505.294
656.659	17516.157
656.788	17564.431
656.916	17520.784
657.044	17520.000
657.172	17512.039
657.300	17691.275
657.428	17466.824
657.556	17533.902
657.684	17480.765
657.813	17506.373
657.941	17466.039
658.069	17424.863
658.197	17450.471
658.325	17480.706
658.453	17484.412
658.581	17406.471
658.709	17426.098
658.838	17516.000
658.966	17512.725
659.094	17476.314
659.222	17426.706
659.350	17361.412
659.478	17508.608
659.606	17530.490
659.734	17472.765
659.863	17388.118
659.991	17327.235
660.119	17387.078
660.247	17503.961
660.375	17335.255
660.503	17316.647
660.631	17369.451
660.759	17340.392
660.888	17356.412
661.016	17329.431
661.144	17329.451
661.272	17360.412
661.400	17335.647
661.528	17403.118
661.656	17357.000
661.784	17331.216
661.913	17391.647
662.041	17461.667
662.169	17380.863
662.297	17591.020
662.425	17478.824
662.553	17654.020
662.681	17526.275
662.809	17623.784
662.938	17562.549
663.066	17587.294
663.194	17624.059
663.322	17644.275
663.450	17674.902
663.578	17605.765
663.706	17812.980
663.834	17759.235
663.963	17700.608
664.091	17751.961
664.219	17756.255
664.347	17875.431
664.475	17971.059
664.603	17789.725
664.731	17792.196
664.859	17834.843
664.988	17877.804
665.116	17870.804
665.244	17925.412
665.372	17938.706
665.500	18044.941
665.628	18031.059
665.756	18067.118
665.884	18111.118
666.013	18106.961
666.141	18128.745
666.269	18212.843
666.397	18288.235
666.525	18306.059
666.653	18325.098
666.781	18460.745
666.909	18400.725
667.038	18516.373
667.166	18462.745
667.294	18561.627
667.422	18596.373
667.550	18623.824
667.678	18669.373
667.806	18636.451
667.934	18695.863
668.063	18706.412
668.191	18841.784
668.319	18854.098
668.447	18816.314
668.575	18984.588
668.703	18969.098
668.831	18979.020
668.959	18996.804
669.088	19213.137
669.216	19072.431
669.344	19169.961
669.472	19178.510
669.600	19193.725
669.728	19331.392
669.856	19240.137
669.984	19240.000
670.113	19206.804
670.241	19239.843
670.369	19290.255
670.497	19360.765
670.625	19387.765
670.753	19590.745
670.881	19655.412
671.009	19531.902
671.138	19487.333
671.266	19420.059
671.394	19447.020
671.522	19512.765
671.650	19412.882
671.778	19424.235
671.906	19428.627
672.034	19501.961
672.163	19437.196
672.291	19519.059
672.419	19543.863
672.547	19465.686
672.675	19489.451
672.803	19508.451
672.931	19519.275
673.059	19477.333
673.188	19460.529
673.316	19480.294
673.444	19521.431
673.572	19626.902
673.700	19468.725
673.828	19436.627
673.956	19485.353
674.084	19416.706
674.213	19494.843
674.341	19355.804
674.469	19395.392
674.597	19352.569
674.725	19467.922
674.853	19289.039
674.981	19358.353
675.109	19285.176
675.238	19302.176
675.366	19295.725
675.494	19334.667
675.622	19387.431
675.750	19436.059
675.878	19376.765
676.006	19449.843
676.134	19327.745
676.263	19359.980
676.391	19378.569
676.519	19335.804
676.647	19390.255
676.775	19295.980
676.903	19522.961
677.031	19359.412
677.159	19377.863
677.288	19592.961
677.416	19398.353
677.544	19400.137
677.672	19414.608
677.800	19370.039
677.928	19426.667
678.056	19473.275
678.184	19454.255
678.313	19527.392
678.441	19376.941
678.569	19659.216
678.697	19515.196
678.825	19503.294
678.953	19569.843
679.081	19534.392
679.209	19522.098
679.338	19608.471
679.466	19559.686
679.594	19507.392
679.722	19600.196
679.850	19541.980
679.978	19588.137
680.106	19624.843
680.234	19606.275
680.363	19646.431
680.491	19589.608
680.619	19858.824
680.747	19772.647
680.875	19713.980
681.003	19761.922
681.131	19819.098
681.259	19784.843
681.388	19789.039
681.516	20000.745
681.644	19866.490
681.772	20057.882
681.900	19893.196
682.028	19928.235
682.156	19916.843
682.284	19949.765
682.413	20059.549
682.541	20075.059
682.669	20037.216
682.797	20218.529
682.925	20217.922
683.053	20299.235
683.181	20333.667
683.309	20313.333
683.438	20382.353
683.566	20478.941
683.694	20557.980
683.822	20539.667
683.950	20620.176
684.078	20589.961
684.206	20798.412
684.334	20714.275
684.463	20817.471
684.591	20709.804
684.719	20674.686
684.847	20737.961
684.975	20783.667
685.103	20779.098
685.231	20929.941
685.359	20798.137
685.488	20918.980
685.616	20986.902
685.744	20959.804
685.872	20962.980
686.000	21057.235
686.128	20961.235
686.256	20968.118
686.384	21080.157
686.513	21020.882
686.641	21124.804
686.769	21145.196
686.897	21246.784
687.025	21171.235
687.153	21180.667
687.281	21170.392
687.409	21150.196
687.538	21212.176
687.666	21187.667
687.794	21173.745
687.922	21176.020
688.050	21128.804
688.178	21345.784
688.306	21370.686
688.434	21236.510
688.563	21245.471
688.691	21288.294
688.819	21390.588
688.947	21259.451
689.075	21386.706
689.203	21446.118
689.331	21316.882
689.459	21403.882
689.588	21419.824
689.716	21488.686
689.844	21455.902
689.972	21451.529
690.100	21468.902
690.228	21578.451
690.356	21465.353
690.484	21576.039
690.613	21424.059
690.741	21384.549
690.869	21409.451
690.997	21338.941
691.125	21670.490
691.253	21529.588
691.381	21363.627
691.509	21396.510
691.638	21478.686
691.766	21448.824
691.894	21538.098
692.022	21529.686
692.150	21530.627
692.278	21378.804
692.406	21422.980
692.534	21403.843
692.663	21425.275
692.791	21469.569
692.919	21500.490
693.047	21466.765
693.175	21463.765
693.303	21512.529
693.431	21418.412
693.559	21493.471
693.688	21533.863
693.816	21361.882
693.944	21435.314
694.072	21414.725
694.200	21416.275
694.328	21349.431
694.456	21505.471
694.584	21361.980
694.713	21459.647
694.841	21454.902
694.969	21566.000
695.097	21622.235
695.225	21381.490
695.353	21573.686
695.481	21495.314
695.609	21573.941
695.738	21445.137
695.866	21463.725
695.994	21397.294
696.122	21636.510
696.250	21466.078
696.378	21419.588
696.506	21352.431
696.634	21455.863
696.763	21425.314
696.891	21416.000
697.019	21407.059
697.147	21572.824
697.275	21520.725
697.403	21483.882
697.531	21543.255
697.659	21458.176
697.788	21678.137
697.916	21550.078
698.044	21578.078
698.172	21499.588
698.300	21572.588
698.428	21561.569
698.556	21654.412
698.684	21590.392
698.813	21703.627
698.941	21762.765
699.069	21675.431
699.197	21639.020
699.325	21629.902
699.453	21683.431
699.581	21861.020
699.709	21732.275
699.838	21705.255
699.966	21690.510
700.094	21759.098
700.222	21869.902
700.350	21841.745
700.478	21763.333
700.606	21801.725
700.734	21748.725
700.863	21746.294
700.991	21752.353
701.119	21727.843
701.247	21720.020
701.375	21777.667
701.503	21670.137
701.631	21715.706
701.759	21709.431
701.888	21794.667
702.016	21868.333
702.144	21653.569
702.272	21730.627
702.400	21698.647
702.528	21768.451
702.656	21941.078
702.784	21775.216
702.913	21816.784
703.041	21762.216
703.169	21950.980
703.297	21786.490
703.425	21788.686
703.553	21831.745
703.681	21851.529
703.809	21848.157
703.938	21763.667
704.066	21915.627
704.194	21785.706
704.322	21665.608
704.450	21654.765
704.578	21632.510
704.706	21722.980
704.834	21651.941
704.963	21664.941
705.091	21526.961
705.219	21620.235
705.347	21477.118
705.475	21522.647
705.603	21568.725
705.731	21551.471
705.859	21457.255
705.988	21470.745
706.116	21418.902
706.244	21371.216
706.372	21478.569
706.500	21317.431
706.628	21437.882
706.756	21327.412
706.884	21330.882
707.013	21465.275
707.141	21250.471
707.269	21345.333
707.397	21257.000
707.525	21151.922
707.653	21185.706
707.781	21212.863
707.909	21062.333
708.038	21085.627
708.166	20922.882
708.294	20922.647
708.422	20890.176
708.550	20872.020
708.678	20804.392
708.806	20887.451
708.934	20768.196
709.063	20755.216
709.191	20723.000
709.319	20749.275
709.447	20767.824
709.575	20779.549
709.703	20829.490
709.831	20901.745
709.959	20858.569
710.088	20977.608
710.216	21065.235
710.344	20930.902
710.472	21116.314
710.600	21128.137
710.728	21100.490
710.856	21076.020
710.984	21169.020
711.113	21202.314
711.241	21195.118
711.369	21260.686
711.497	21195.471
711.625	21164.471
711.753	21242.314
711.881	21173.451
712.009	21322.980
712.138	21275.725
712.266	21175.137
712.394	21299.412
712.522	21204.627
712.650	21298.588
712.778	21314.784
712.906	21284.314
713.034	21313.059
713.163	21302.784
713.291	21323.902
713.419	21382.549
713.547	21272.686
713.675	21288.627
713.803	21227.667
713.931	21316.471
714.059	21338.980
714.188	21328.843
714.316	21339.725
714.444	21407.176
714.572	21473.039
714.700	21386.706
714.828	21441.059
714.956	21400.314
715.084	21434.020
715.213	21411.196
715.341	21456.980
715.469	21404.843
715.597	21537.020
715.725	21415.745
715.853	21423.569
715.981	21416.333
716.109	21462.941
716.238	21476.529
716.366	21442.353
716.494	21548.412
716.622	21486.549
716.750	21418.961
716.878	21555.980
717.006	21472.569
717.134	21419.235
717.263	21427.941
717.391	21545.392
717.519	21390.863
717.647	21466.314
717.775	21338.569
717.903	21318.902
718.031	21234.392
718.159	21295.020
718.288	21248.608
718.416	21243.000
718.544	21219.843
718.672	21221.843
718.800	21151.118
718.928	21184.824
719.056	21154.745
719.184	21246.784
719.313	21135.627
719.441	21198.255
719.569	21125.765
719.697	21203.627
719.825	21129.353
719.953	21086.373
720.081	20991.000
720.209	20955.627
720.338	20834.020
720.466	20863.490
720.594	20884.980
720.722	20946.843
720.850	20824.549
720.978	20745.686
721.106	20695.745
721.234	20746.235
721.363	20718.804
721.491	20635.118
721.619	20565.431
721.747	20527.373
721.875	20634.569
722.003	20429.804
722.131	20474.275
722.259	20370.882
722.388	20480.078
722.516	20285.412
722.644	20345.784
722.772	20227.431
722.900	20200.980
723.028	20235.863
723.156	20128.686
723.284	20147.431
723.413	20158.647
723.541	20133.314
723.669	20041.863
723.797	20040.471
723.925	20004.333
724.053	19954.196
724.181	19925.431
724.309	20000.412
724.438	19906.373
724.566	19950.725
724.694	19804.255
724.822	19807.980
724.950	19852.039
725.078	19783.765
725.206	19669.078
725.334	19774.000
725.463	19683.843
725.591	19832.137
725.719	19854.647
725.847	19683.373
725.975	19677.765
726.103	19660.510
726.231	19558.431
726.359	19530.588
726.488	19774.824
726.616	19507.765
726.744	19608.961
726.872	19478.039
727.000	19657.784
727.128	19587.431
727.256	19620.882
727.384	19573.078
727.513	19592.941
727.641	19562.294
727.769	19624.412
727.897	19692.098
728.025	19590.706
728.153	19623.549
728.281	19646.176
728.409	19581.137
728.538	19581.039
728.666	19570.882
728.794	19520.353
728.922	19538.686
729.050	19595.000
729.178	19606.941
729.306	19582.745
729.434	19619.000
729.563	19543.784
729.691	19604.412
729.819	19574.686
729.947	19726.451
730.075	19571.235
730.203	19592.000
730.331	19602.000
730.459	19638.353
730.588	19629.216
730.716	19680.451
730.844	19608.078
730.972	19628.020
731.100	19634.059
731.228	19716.157
731.356	19746.784
731.484	19710.902
731.613	19658.157
731.741	19740.118
731.869	19759.392
731.997	19691.725
732.125	19837.667
732.253	19871.922
732.381	19831.020
732.509	19925.255
732.638	19874.412
732.766	19841.608
732.894	19892.922
733.022	19906.314
733.150	19910.216
733.278	19960.510
733.406	19979.294
733.534	19962.059
733.663	19948.510
733.791	20111.314
733.919	20060.314
734.047	20007.510
734.175	20055.627
734.303	20034.078
734.431	19949.196
734.559	20016.961
734.688	20005.980
734.816	19986.765
734.944	20032.255
735.072	20067.765
735.200	20062.804
735.328	20037.490
735.456	20072.078
735.584	20074.706
735.713	20131.529
735.841	20026.275
735.969	20307.137
736.097	20073.667
736.225	20059.020
736.353	20095.824
736.481	20073.941
736.609	20104.078
736.738	20025.608
736.866	20054.490
736.994	20093.294
737.122	20087.255
737.250	20150.804
737.378	20108.627
737.506	20049.118
737.634	20129.549
737.763	20139.235
737.891	20149.941
738.019	20077.980
738.147	20227.510
738.275	20031.706
738.403	20118.471
738.531	20117.686
738.659	20157.118
738.788	20068.529
738.916	20078.059
739.044	20152.392
739.172	19982.608
739.300	20079.451
739.428	20073.647
739.556	19969.725
739.684	19968.314
739.813	20048.471
739.941	19972.118
740.069	20033.451
740.197	19969.431
740.325	19967.471
740.453	20091.588
740.581	19989.863
740.709	19957.882
740.838	19892.765
740.966	19842.333
741.094	19851.412
741.222	19825.569
741.350	19912.216
741.478	19807.392
741.606	19799.373
741.734	19791.196
741.863	19818.451
741.991	19769.745
742.119	19747.039
742.247	19900.686
742.375	19781.745
742.503	19811.490
742.631	19748.353
742.759	19718.647
742.888	19769.118
743.016	19739.804
743.144	19631.941
743.272	19660.118
743.400	19714.078
743.528	19648.824
743.656	19668.176
743.784	19840.412
743.913	19637.529
744.041	19611.392
744.169	19602.412
744.297	19763.176
744.425	19597.118
744.553	19554.020
744.681	19536.137
744.809	19488.098
744.938	19526.549
745.066	19550.725
745.194	19548.941
745.322	19604.314
745.450	19494.784
745.578	19515.314
745.706	19542.824
745.834	19435.235
745.963	19417.863
746.091	19430.294
746.219	19403.569
746.347	19444.569
746.475	19308.941
746.603	19364.824
746.731	19316.059
746.859	19364.216
746.988	19295.255
747.116	19406.196
747.244	19389.569
747.372	19293.118
747.500	19327.078
747.628	19354.824
747.756	19337.392
747.884	19387.804
748.013	19410.941
748.141	19309.647
748.269	19253.863
748.397	19291.569
748.525	19366.941
748.653	19349.529
748.781	19389.745
748.909	19325.118
749.038	19371.157
749.166	19320.000
749.294	19438.706
749.422	19415.098
749.550	19363.549
749.678	19357.608
749.806	19378.843
749.934	19421.784
750.063	19347.490
750.191	19502.294
750.319	19327.216
750.447	19384.686
750.575	19494.941
750.703	19334.373
750.831	19353.980
750.959	19389.314
751.088	19391.980
751.216	19353.000
751.344	19266.020
751.472	19304.686
751.600	19347.314
751.728	19399.980
751.856	19404.039
751.984	19343.549
752.113	19359.431
752.241	19321.294
752.369	19312.451
752.497	19495.412
752.625	19308.157
752.753	19309.196
752.881	19293.176
753.009	19287.118
753.138	19255.020
753.266	19277.471
753.394	19295.980
753.522	19389.686
753.650	19294.765
753.778	19306.353
753.906	19316.843
754.034	19246.706
754.163	19298.824
754.291	19425.078
754.419	19278.784
754.547	19268.353
754.675	19291.451
754.803	19272.451
754.931	19284.196
755.059	19275.882
755.188	19261.373
755.316	19234.373
755.444	19272.510
755.572	19219.608
755.700	19234.373
755.828	19231.529
755.956	19244.039
756.084	19222.020
756.213	19254.824
756.341	19202.059
756.469	19236.196
756.597	19237.549
756.725	19180.941
756.853	19186.549
756.981	19190.392
757.109	19242.000
757.238	19165.922
757.366	19124.333
757.494	19126.843
757.622	19109.255
757.750	19143.725
757.878	19047.667
758.006	19148.275
758.134	19055.608
758.263	19037.412
758.391	19113.078
758.519	19026.294
758.647	19060.137
758.775	19089.392
758.903	18951.725
759.031	19016.961
759.159	19008.255
759.288	19095.882
759.416	18912.529
759.544	18995.451
759.672	18935.020
759.800	19029.784
759.928	18906.373
760.056	19033.686
760.184	18900.824
760.313	18899.490
760.441	18946.471
760.569	18873.039
760.697	18900.824
760.825	18915.686
760.953	18911.216
761.081	18898.314
761.209	18868.686
761.338	18777.941
761.466	18875.784
761.594	18935.333
761.722	18848.471
761.850	18716.059
761.978	18703.118
762.106	18794.882
762.234	18684.196
762.363	18683.804
762.491	18551.745
762.619	18639.059
762.747	18673.569
762.875	18552.078
763.003	18561.824
763.131	18563.529
763.259	18572.392
763.388	18551.863
763.516	18550.745
763.644	18607.255
763.772	18564.078
763.900	18522.314
764.028	18570.118
764.156	18545.608
764.284	18443.118
764.413	18457.686
764.541	18515.647
764.669	18488.490
764.797	18435.255
764.925	18424.784
765.053	18327.333
765.181	18391.961
765.309	18377.843
765.438	18361.039
765.566	18423.275
765.694	18385.294
765.822	18543.431
765.950	18358.294
766.078	18321.431
766.206	18307.275
766.334	18219.000
766.463	18234.353
766.591	18312.882
766.719	18296.176
766.847	18348.020
766.975	18296.843
767.103	18234.353
767.231	18319.765
767.359	18208.471
767.488	18244.529
767.616	18186.706
767.744	18241.196
767.872	18300.373
768.000	18173.176
768.128	18226.392
768.256	18185.098
768.384	18142.647
768.513	18148.333
768.641	18192.588
768.769	18214.098
768.897	18241.882
769.025	18339.137
769.153	18182.373
769.281	18248.216
769.409	18142.275
769.538	18089.294
769.666	18222.647
769.794	18131.118
769.922	18249.157
770.050	18184.549
770.178	18166.529
770.306	18120.196
770.434	18074.922
770.563	18135.039
770.691	18187.549
770.819	18056.961
770.947	18097.490
771.075	18011.137
771.203	17967.118
771.331	18120.725
771.459	17996.373
771.588	17960.510
771.716	17903.824
771.844	17983.725
771.972	18006.000
772.100	17869.353
772.228	17887.275
772.356	17971.784
772.484	17800.039
772.613	17801.941
772.741	17804.098
772.869	17941.294
772.997	17872.314
773.125	17889.863
773.253	17890.843
773.381	17801.412
773.509	17875.529
773.638	17865.569
773.766	17868.275
773.894	17801.294
774.022	17790.353
774.150	17752.451
774.278	17762.980
774.406	17800.471
774.534	17844.824
774.663	17826.725
774.791	17743.118
774.919	17823.922
775.047	17730.627
775.175	17791.863
775.303	17825.706
775.431	17662.510
775.559	17659.686
775.688	17695.059
775.816	17774.784
775.944	17754.157
776.072	17807.784
776.200	17676.784
776.328	17722.098
776.456	17701.706
776.584	17729.392
776.713	17731.333
776.841	17669.275
776.969	17760.725
777.097	17803.961
777.225	17801.882
777.353	17750.765
777.481	17731.941
777.609	17711.137
777.738	17696.235
777.866	17721.157
777.994	17677.922
778.122	17779.961
778.250	17791.118
778.378	17780.647
778.506	17765.157
778.634	17731.922
778.763	17868.059
778.891	17828.039
779.019	17832.725
779.147	17872.000
779.275	17922.294
779.403	17866.333
779.531	17844.627
779.659	17860.275
779.788	17813.686
779.916	17806.961
780.044	17781.922
780.172	17906.078
780.300	17800.412
780.428	17833.059
780.556	17871.176
780.684	17813.059
780.813	17733.569
780.941	17724.863
781.069	17769.529
781.197	17831.765
781.325	17945.725
781.453	17779.725
781.581	17802.784
781.709	17710.176
781.838	17759.647
781.966	17688.059
782.094	17674.333
782.222	17791.098
782.350	17695.549
782.478	17729.059
782.606	17692.157
782.734	17769.784
782.863	17641.314
782.991	17726.392
783.119	17692.941
783.247	17725.490
783.375	17750.667
783.503	17681.255
783.631	17669.980
783.759	17613.196
783.888	17689.902
784.016	17617.863
784.144	17630.745
784.272	17520.000
784.400	17626.569
784.528	17614.529
784.656	17653.353
784.784	17589.941
784.913	17466.510
785.041	17553.725
785.169	17432.392
785.297	17521.706
785.425	17448.961
785.553	17483.020
785.681	17391.627
785.809	17561.157
785.938	17474.431
786.066	17385.824
786.194	17307.745
786.322	17290.667
786.450	17292.412
786.578	17327.941
786.706	17317.314
786.834	17292.824
786.963	17280.941
787.091	17182.706
787.219	17175.294
787.347	17127.373
787.475	17184.196
787.603	17183.353
787.731	17121.510
787.859	17140.000
787.988	17291.431
788.116	17243.549
788.244	17242.039
788.372	17121.176
788.500	17114.686
788.628	17121.588
788.756	17064.627
788.884	17135.431
789.013	17059.196
789.141	17066.314
789.269	17084.941
789.397	17033.804
789.525	17025.588
789.653	17024.882
789.781	16987.412
789.909	16985.667
790.038	16911.745
790.166	16826.118
790.294	16792.608
790.422	16796.784
790.550	16739.176
790.678	16719.863
790.806	16671.078
790.934	16727.765
791.063	16658.451
791.191	16678.431
791.319	16579.569
791.447	16639.314
791.575	16552.882
791.703	16547.275
791.831	16547.471
791.959	16503.431
792.088	16559.882
792.216	16511.137
792.344	16476.961
792.472	16398.941
792.600	16482.255
792.728	16415.275
792.856	16502.588
792.984	16374.294
793.113	16415.216
793.241	16344.725
793.369	16350.490
793.497	16376.078
793.625	16410.706
793.753	16343.725
793.881	16270.059
794.009	16346.412
794.138	16169.333
794.266	16255.255
794.394	16212.451
794.522	16275.294
794.650	16202.314
794.778	16273.118
794.906	16186.216
795.034	16205.451
795.163	16180.039
795.291	16158.863
795.419	16318.490
795.547	16121.196
795.675	16114.765
795.803	16179.235
795.931	16096.784
796.059	16034.863
796.188	16093.275
796.316	16102.843
796.444	16147.216
796.572	16093.941
796.700	16062.373
796.828	15975.843
796.956	15965.255
797.084	15927.667
797.213	15905.059
797.341	15840.863
797.469	15881.314
797.597	15843.941
797.725	15833.078
797.853	15763.529
797.981	15707.216
798.109	15739.490
798.238	15679.980
798.366	15777.059
798.494	15624.667
798.622	15700.765
798.750	15735.667
798.878	15648.392
799.006	15596.647
799.134	15583.471
799.263	15508.843
799.391	15476.118
799.519	15471.216
799.647	15428.569
799.775	15415.510
799.903	15375.471
800.031	15345.039
800.159	15323.353
800.288	15278.824
800.416	15260.471
800.544	15218.784
800.672	15107.471
800.800	15139.608
800.928	15096.392
801.056	15159.196
801.184	15129.588
801.313	15101.059
801.441	15017.314
801.569	14964.706
801.697	15004.255
801.825	14947.706
801.953	14944.627
802.081	14993.961
802.209	14933.039
802.338	14915.922
802.466	14831.020
802.594	14870.333
802.722	14812.196
802.850	14767.471
802.978	14750.863
803.106	14831.196
803.234	14749.745
803.363	14750.235
803.491	14761.275
803.619	14642.706
803.747	14587.118
803.875	14614.490
804.003	14573.353
804.131	14592.569
804.259	14563.176
804.388	14497.784
804.516	14529.667
804.644	14520.333
804.772	14500.706
804.900	14468.314
805.028	14448.255
805.156	14417.412
805.284	14442.941
805.413	14464.529
805.541	14441.451
805.669	14417.922
805.797	14424.333
805.925	14344.431
806.053	14236.882
806.181	14348.549
806.309	14283.392
806.438	14215.275
806.566	14293.451
806.694	14251.784
806.822	14231.333
806.950	14163.118
807.078	14100.608
807.206	14215.039
807.334	14092.059
807.463	14063.784
807.591	14044.294
807.719	14055.196
807.847	14034.000
807.975	13997.980
808.103	13955.725
808.231	13985.863
808.359	13881.569
808.488	13825.627
808.616	13812.451
808.744	13805.490
808.872	13812.176
809.000	13725.804
809.128	13793.745
809.256	13731.745
809.384	13693.882
809.513	13624.118
809.641	13605.980
809.769	13595.863
809.897	13649.294
810.025	13588.059
810.153	13587.333
810.281	13669.373
810.409	13624.824
810.538	13553.118
810.666	13530.745
810.794	13548.000
810.922	13537.627
811.050	13608.098
811.178	13550.686
811.306	13468.118
811.434	13571.373
811.563	13467.000
811.691	13439.020
811.819	13469.431
811.947	13431.314
812.075	13370.804
812.203	13405.765
812.331	13362.882
812.459	13329.471
812.588	13349.647
812.716	13286.118
812.844	13235.608
812.972	13172.490
813.100	13146.725
813.228	13195.549
813.356	13197.216
813.484	13219.608
813.613	13209.922
813.741	13235.314
813.869	12615.020
