spectrometer_90_referenz_at_650.00nm_cut_at_1184.50Y_01.dat
02.05.2022
11:30:13
cut middle at Y: 1184.50
top cursor: 1210 down cursor: 1159 mean of: 51 lines , 2560 datapoints
wavelength(nm)	intensity[arb. units]
485.997	6859.686
486.125	6246.255
486.253	6074.627
486.381	6090.118
486.510	6125.627
486.638	6216.000
486.766	6208.608
486.894	6225.235
487.022	6299.941
487.150	6285.980
487.278	6282.569
487.406	6320.922
487.535	6377.059
487.663	6378.118
487.791	6376.510
487.919	6405.078
488.047	6396.627
488.175	6462.314
488.303	6468.333
488.431	6513.157
488.560	6547.412
488.688	6561.059
488.816	6560.843
488.944	6627.667
489.072	6649.471
489.200	6672.569
489.328	6671.392
489.456	6718.078
489.585	6722.392
489.713	6734.392
489.841	6651.647
489.969	6719.039
490.097	6735.667
490.225	6720.098
490.353	6779.471
490.481	6749.373
490.610	6757.020
490.738	6727.686
490.866	6831.980
490.994	6738.196
491.122	6817.294
491.250	6796.941
491.378	6782.667
491.506	6857.000
491.635	6806.353
491.763	6806.314
491.891	6828.941
492.019	6873.765
492.147	6797.843
492.275	6803.980
492.403	6831.216
492.531	6963.725
492.660	6922.451
492.788	6915.255
492.916	6955.863
493.044	6868.804
493.172	6922.059
493.300	6966.647
493.428	6965.784
493.556	7001.059
493.685	7016.196
493.813	7056.235
493.941	7107.529
494.069	7107.314
494.197	7141.549
494.325	7160.882
494.453	7329.647
494.581	7257.275
494.710	7280.627
494.838	7310.725
494.966	7391.667
495.094	7324.961
495.222	7417.118
495.350	7439.431
495.478	7481.843
495.606	7508.804
495.735	7510.510
495.863	7531.196
495.991	7567.039
496.119	7614.059
496.247	7670.902
496.375	7619.020
496.503	7593.706
496.631	7658.451
496.760	7595.275
496.888	7638.588
497.016	7620.000
497.144	7639.059
497.272	7632.922
497.400	7632.118
497.528	7623.020
497.656	7629.294
497.785	7618.098
497.913	7603.471
498.041	7625.098
498.169	7633.882
498.297	7594.314
498.425	7724.843
498.553	7593.020
498.681	7615.765
498.810	7692.784
498.938	7595.882
499.066	7662.373
499.194	7731.863
499.322	7667.059
499.450	7645.157
499.578	7635.373
499.706	7682.490
499.835	7703.176
499.963	7705.392
500.091	7724.373
500.219	7728.333
500.347	7803.824
500.475	7791.451
500.603	7760.549
500.731	7772.569
500.860	7831.353
500.988	7911.608
501.116	7846.922
501.244	7918.706
501.372	7945.216
501.500	7956.020
501.628	8019.353
501.756	7975.255
501.885	8040.255
502.013	7989.412
502.141	8098.039
502.269	8070.882
502.397	8223.039
502.525	8138.725
502.653	8227.294
502.781	8232.451
502.910	8227.275
503.038	8271.843
503.166	8255.020
503.294	8273.275
503.422	8285.294
503.550	8330.392
503.678	8332.588
503.806	8318.059
503.935	8327.039
504.063	8367.647
504.191	8368.431
504.319	8338.412
504.447	8324.863
504.575	8333.725
504.703	8426.549
504.831	8347.373
504.960	8329.529
505.088	8375.157
505.216	8424.961
505.344	8532.039
505.472	8398.667
505.600	8378.294
505.728	8494.118
505.856	8415.412
505.985	8445.039
506.113	8444.490
506.241	8468.549
506.369	8467.353
506.497	8441.627
506.625	8538.902
506.753	8488.647
506.881	8551.804
507.010	8538.608
507.138	8548.373
507.266	8643.941
507.394	8593.235
507.522	8715.235
507.650	8624.000
507.778	8714.980
507.906	8739.000
508.035	8737.333
508.163	8782.294
508.291	8811.157
508.419	8839.706
508.547	8863.078
508.675	8903.765
508.803	8872.137
508.931	8901.098
509.060	8935.686
509.188	8942.020
509.316	8931.922
509.444	8920.843
509.572	9125.686
509.700	8984.235
509.828	9024.137
509.956	9049.882
510.085	9038.569
510.213	9064.392
510.341	9025.451
510.469	9097.176
510.597	9131.686
510.725	9059.961
510.853	9161.980
510.981	9129.608
511.110	9141.765
511.238	9118.490
511.366	9141.902
511.494	9202.157
511.622	9164.725
511.750	9181.471
511.878	9228.941
512.006	9211.314
512.135	9240.863
512.263	9253.882
512.391	9249.333
512.519	9265.098
512.647	9234.961
512.775	9282.020
512.903	9275.784
513.031	9326.824
513.160	9292.020
513.288	9391.882
513.416	9331.882
513.544	9293.471
513.672	9310.765
513.800	9318.706
513.928	9335.412
514.056	9348.412
514.185	9324.471
514.313	9287.804
514.441	9416.294
514.569	9345.510
514.697	9314.510
514.825	9286.706
514.953	9298.314
515.081	9270.176
515.210	9312.667
515.338	9345.667
515.466	9236.373
515.594	9299.824
515.722	9245.961
515.850	9314.490
515.978	9206.176
516.106	9244.980
516.235	9226.333
516.363	9277.608
516.491	9287.078
516.619	9309.039
516.747	9360.627
516.875	9306.824
517.003	9279.157
517.131	9328.569
517.260	9306.882
517.388	9305.196
517.516	9347.431
517.644	9378.275
517.772	9434.490
517.900	9432.392
518.028	9441.510
518.156	9456.529
518.284	9453.490
518.413	9508.471
518.541	9578.686
518.669	9539.922
518.797	9623.373
518.925	9613.608
519.053	9623.490
519.181	9660.157
519.309	9665.118
519.438	9749.471
519.566	9769.333
519.694	9732.373
519.822	9817.059
519.950	9835.451
520.078	9851.373
520.206	9900.608
520.334	9934.333
520.463	9930.118
520.591	9921.843
520.719	9914.098
520.847	9982.137
520.975	9945.294
521.103	9972.353
521.231	9909.725
521.359	10106.902
521.488	10008.059
521.616	10049.275
521.744	10011.588
521.872	10042.510
522.000	9915.627
522.128	9914.686
522.256	9919.020
522.384	9878.824
522.513	9891.706
522.641	9891.314
522.769	9939.686
522.897	9932.020
523.025	9883.059
523.153	9799.176
523.281	9838.255
523.409	9786.902
523.538	9823.137
523.666	9776.294
523.794	9825.216
523.922	9796.275
524.050	9782.176
524.178	9756.157
524.306	9752.118
524.434	9814.412
524.563	9835.412
524.691	9991.137
524.819	9877.000
524.947	9881.961
525.075	9879.882
525.203	9898.373
525.331	9997.627
525.459	10050.333
525.588	10006.392
525.716	10070.745
525.844	10103.137
525.972	10182.902
526.100	10112.843
526.228	10253.588
526.356	10194.196
526.484	10256.373
526.613	10244.431
526.741	10305.039
526.869	10314.216
526.997	10396.118
527.125	10448.333
527.253	10456.020
527.381	10545.784
527.509	10524.706
527.638	10568.961
527.766	10657.078
527.894	10653.549
528.022	10768.745
528.150	10721.059
528.278	10840.745
528.406	10829.157
528.534	10829.922
528.663	10883.725
528.791	10930.922
528.919	10891.294
529.047	11010.451
529.175	10846.824
529.303	10902.843
529.431	10871.490
529.559	10943.196
529.688	10925.608
529.816	10929.412
529.944	11072.824
530.072	10958.118
530.200	10962.882
530.328	10994.216
530.456	11002.569
530.584	10981.569
530.713	11020.843
530.841	11014.902
530.969	11012.176
531.097	11059.196
531.225	11015.451
531.353	11122.196
531.481	11040.902
531.609	11193.667
531.738	11052.137
531.866	11102.098
531.994	11112.275
532.122	11199.745
532.250	11067.059
532.378	11034.627
532.506	10980.922
532.634	11002.784
532.763	10955.647
532.891	10999.333
533.019	10980.137
533.147	10980.196
533.275	10958.569
533.403	11016.196
533.531	11010.941
533.659	10998.490
533.788	11011.000
533.916	10991.294
534.044	11017.725
534.172	11082.510
534.300	11055.353
534.428	11011.922
534.556	11205.235
534.684	11039.941
534.813	11015.431
534.941	11043.490
535.069	11004.196
535.197	11029.588
535.325	11017.765
535.453	11022.098
535.581	11061.157
535.709	10976.451
535.838	11018.569
535.966	11028.216
536.094	11035.216
536.222	11106.373
536.350	11070.451
536.478	11070.961
536.606	11125.373
536.734	11098.765
536.863	11063.373
536.991	11143.275
537.119	11180.784
537.247	11116.647
537.375	11288.176
537.503	11126.647
537.631	11142.843
537.759	11136.804
537.888	11146.627
538.016	11369.294
538.144	11254.078
538.272	11191.490
538.400	11292.843
538.528	11236.549
538.656	11300.176
538.784	11306.961
538.913	11450.804
539.041	11345.137
539.169	11365.706
539.297	11340.157
539.425	11487.569
539.553	11474.314
539.681	11549.686
539.809	11558.902
539.938	11528.059
540.066	11535.294
540.194	11610.686
540.322	11726.275
540.450	11728.824
540.578	11665.529
540.706	11760.020
540.834	11787.471
540.963	11891.490
541.091	11787.706
541.219	11829.235
541.347	11920.922
541.475	11919.392
541.603	11907.647
541.731	11944.216
541.859	11931.196
541.988	11945.275
542.116	12110.510
542.244	11967.980
542.372	12115.941
542.500	12007.863
542.628	12095.725
542.756	12005.412
542.884	12049.980
543.013	12077.902
543.141	12100.902
543.269	12081.333
543.397	12048.608
543.525	12056.000
543.653	12105.882
543.781	12008.471
543.909	12047.529
544.038	12147.922
544.166	12137.902
544.294	12191.314
544.422	12023.627
544.550	12113.863
544.678	12133.706
544.806	12047.392
544.934	11995.255
545.063	12047.765
545.191	12216.451
545.319	12082.804
545.447	11977.765
545.575	11986.020
545.703	12053.137
545.831	11983.627
545.959	11935.176
546.088	11936.353
546.216	11951.275
546.344	12004.431
546.472	12135.627
546.600	11978.686
546.728	11952.137
546.856	12035.020
546.984	11999.961
547.113	12094.941
547.241	12073.314
547.369	12158.980
547.497	12118.000
547.625	12167.255
547.753	12085.510
547.881	12044.647
548.009	12005.882
548.138	12048.843
548.266	12013.706
548.394	12077.216
548.522	11939.020
548.650	12072.078
548.778	12015.353
548.906	11874.765
549.034	11969.235
549.163	11864.510
549.291	11831.098
549.419	11892.529
549.547	12122.765
549.675	12047.588
549.803	12117.275
549.931	12156.059
550.059	12210.118
550.188	12310.471
550.316	12387.549
550.444	12417.255
550.572	12512.000
550.700	12535.961
550.828	12670.078
550.956	12667.000
551.084	12793.549
551.213	12727.216
551.341	12825.706
551.469	12818.647
551.597	12895.882
551.725	12893.314
551.853	12914.078
551.981	12931.157
552.109	12909.941
552.238	13039.216
552.366	12971.588
552.494	12928.745
552.622	12957.980
552.750	13005.784
552.878	13028.431
553.006	13085.608
553.134	13070.608
553.263	13027.549
553.391	13079.157
553.519	13237.275
553.647	13101.176
553.775	13094.863
553.903	13220.216
554.031	13160.745
554.159	13157.000
554.288	13237.706
554.416	13198.294
554.544	13248.804
554.672	13219.431
554.800	13209.275
554.928	13152.275
555.056	13168.000
555.184	13172.980
555.313	13166.902
555.441	13161.000
555.569	13139.824
555.697	13211.196
555.825	13206.412
555.953	13222.745
556.081	13192.294
556.209	13253.078
556.338	13297.667
556.466	13444.118
556.594	13242.667
556.722	13314.235
556.850	13338.902
556.978	13187.059
557.106	13256.882
557.234	13259.863
557.363	13409.902
557.491	13345.373
557.619	13322.667
557.747	13378.333
557.875	13393.078
558.003	13434.667
558.131	13457.725
558.259	13424.588
558.388	13434.784
558.516	13483.941
558.644	13493.569
558.772	13592.882
558.900	13522.471
559.028	13514.863
559.156	13552.137
559.284	13514.333
559.413	13560.647
559.541	13607.294
559.669	13630.647
559.797	13699.667
559.925	13652.647
560.053	13788.725
560.181	13658.412
560.309	13771.902
560.438	13778.059
560.566	13794.078
560.694	13745.314
560.822	13968.176
560.950	13813.647
561.078	13820.706
561.206	14038.078
561.334	13827.255
561.463	13799.843
561.591	13931.020
561.719	13840.314
561.847	13856.490
561.975	13857.373
562.103	13870.824
562.231	13932.784
562.359	13819.020
562.488	13912.824
562.616	13920.863
562.744	13938.039
562.872	13930.706
563.000	13873.941
563.128	13863.490
563.256	13839.000
563.384	14007.137
563.513	13840.529
563.641	13889.118
563.769	13942.412
563.897	13834.882
564.025	13883.843
564.153	13920.745
564.281	14009.706
564.409	13907.569
564.538	13892.392
564.666	13981.314
564.794	14023.686
564.922	14022.627
565.050	14130.176
565.178	14043.098
565.306	14125.059
565.434	14129.980
565.563	14314.294
565.691	14156.392
565.819	14358.216
565.947	14190.804
566.075	14246.020
566.203	14316.000
566.331	14264.275
566.459	15154.843
566.588	14401.569
566.716	14404.706
566.844	14429.608
566.972	14537.980
567.100	14660.549
567.228	14685.745
567.356	14761.784
567.484	14729.373
567.613	14861.255
567.741	14865.059
567.869	14857.588
567.997	14858.627
568.125	15002.686
568.253	15074.588
568.381	15012.431
568.509	15074.471
568.638	15042.588
568.766	15183.549
568.894	15120.157
569.022	15195.784
569.150	15232.745
569.278	15220.686
569.406	15342.824
569.534	15363.725
569.663	15284.941
569.791	15357.725
569.919	15442.529
570.047	15603.529
570.175	15477.627
570.303	15454.745
570.431	15465.451
570.559	15528.902
570.688	15679.588
570.816	15560.627
570.944	15586.647
571.072	15516.922
571.200	15511.314
571.328	15591.490
571.456	15647.098
571.584	15608.098
571.713	15561.588
571.841	15656.980
571.969	15738.392
572.097	15711.529
572.225	15527.176
572.353	15609.255
572.481	15567.765
572.609	15536.627
572.738	15491.510
572.866	15438.549
572.994	15501.863
573.122	15496.392
573.250	15481.255
573.378	15463.941
573.506	15459.216
573.634	15448.588
573.763	15407.000
573.891	15401.216
574.019	15400.980
574.147	15308.588
574.275	15374.255
574.403	15404.392
574.531	15285.216
574.659	15273.137
574.788	15327.961
574.916	15398.000
575.044	15256.667
575.172	15294.118
575.300	15228.392
575.428	15193.686
575.556	15189.098
575.684	15209.039
575.813	15140.373
575.941	15178.000
576.069	15096.118
576.197	15142.294
576.325	15088.941
576.453	15092.843
576.581	15096.078
576.709	15020.922
576.838	15024.333
576.966	15120.824
577.094	15220.490
577.222	15062.078
577.350	15009.549
577.478	15155.588
577.606	15136.059
577.734	15133.137
577.863	15149.863
577.991	15220.922
578.119	15352.549
578.247	15318.314
578.375	15388.667
578.503	15348.765
578.631	15400.216
578.759	15481.039
578.888	15607.549
579.016	15413.216
579.144	15497.627
579.272	15515.216
579.400	15506.333
579.528	15616.627
579.656	15682.843
579.784	15627.235
579.913	15678.529
580.041	15868.784
580.169	15743.686
580.297	15823.824
580.425	15848.784
580.553	15827.922
580.681	15886.804
580.809	15956.039
580.938	15935.020
581.066	16046.353
581.194	16015.314
581.322	16014.098
581.450	16102.000
581.578	16125.059
581.706	16141.294
581.834	16171.529
581.963	16174.922
582.091	16198.451
582.219	16243.706
582.347	16274.216
582.475	16221.235
582.603	16288.490
582.731	16409.059
582.859	16340.157
582.988	16367.039
583.116	16420.020
583.244	16446.824
583.372	16463.275
583.500	16480.471
583.628	16530.569
583.756	16534.647
583.884	16517.863
584.013	16600.902
584.141	16580.569
584.269	16626.569
584.397	16687.843
584.525	16616.745
584.653	16746.196
584.781	16736.039
584.909	16749.157
585.038	16740.275
585.166	16746.451
585.294	16834.588
585.422	16838.510
585.550	16802.098
585.678	16748.255
585.806	16838.235
585.934	16816.490
586.063	16820.843
586.191	16829.000
586.319	16892.922
586.447	16840.216
586.575	16839.882
586.703	16891.627
586.831	16858.588
586.959	16950.490
587.088	16853.804
587.216	16883.549
587.344	16899.294
587.472	17071.627
587.600	16843.039
587.728	16854.392
587.856	16829.078
587.984	16882.294
588.113	16925.667
588.241	16932.314
588.369	17009.333
588.497	16976.020
588.625	16944.373
588.753	17190.098
588.881	17054.353
589.009	17009.216
589.138	17024.490
589.266	17009.294
589.394	17077.412
589.522	17087.627
589.650	17193.941
589.778	17085.961
589.906	17180.686
590.034	17099.255
590.163	17184.118
590.291	17243.824
590.419	17165.490
590.547	17298.059
590.675	17323.235
590.803	17346.294
590.931	17328.137
591.059	17303.863
591.188	17372.686
591.316	17305.706
591.444	17362.196
591.572	17392.098
591.700	17353.784
591.828	17391.431
591.956	17384.039
592.084	17415.745
592.213	17398.078
592.341	17360.569
592.469	17450.471
592.597	17434.706
592.725	17389.647
592.853	17471.922
592.981	17475.804
593.109	17474.922
593.238	17364.706
593.366	17365.451
593.494	17359.902
593.622	17357.392
593.750	17345.471
593.878	17388.216
594.006	17348.922
594.134	17306.804
594.263	17436.118
594.391	17337.353
594.519	17345.824
594.647	17349.353
594.775	17369.137
594.903	17400.549
595.031	17440.314
595.159	17402.412
595.288	17460.549
595.416	17415.353
595.544	17432.431
595.672	17251.373
595.800	17439.569
595.928	17322.510
596.056	17276.392
596.184	17268.902
596.313	17468.863
596.441	17294.255
596.569	17308.216
596.697	17186.902
596.825	17179.392
596.953	17207.569
597.081	17253.157
597.209	17227.745
597.338	17301.941
597.466	17308.922
597.594	17268.882
597.722	17447.706
597.850	17319.804
597.978	17362.118
598.106	17475.255
598.234	17371.961
598.363	17379.020
598.491	17512.490
598.619	17429.039
598.747	17431.725
598.875	17553.157
599.003	17544.922
599.131	17614.078
599.259	17574.196
599.388	17621.569
599.516	17716.451
599.644	17796.765
599.772	17808.980
599.900	17725.471
600.028	17724.725
600.156	17829.314
600.284	17783.235
600.413	17931.314
600.541	17968.333
600.669	18069.078
600.797	18017.725
600.925	18122.078
601.053	18125.333
601.181	18130.294
601.309	18048.569
601.438	18105.490
601.566	18102.863
601.694	18198.157
601.822	18400.667
601.950	18215.333
602.078	18264.412
602.206	18330.118
602.334	18267.216
602.463	18354.608
602.591	18454.471
602.719	18393.176
602.847	18595.824
602.975	18478.980
603.103	18538.039
603.231	18590.922
603.359	18557.745
603.488	18553.863
603.616	18561.471
603.744	18566.000
603.872	18598.529
604.000	18608.804
604.128	18581.882
604.256	18613.059
604.384	18614.784
604.513	18742.333
604.641	18750.118
604.769	18755.176
604.897	18704.686
605.025	18692.667
605.153	18706.196
605.281	18750.725
605.409	18678.765
605.538	18682.745
605.666	18733.314
605.794	18739.314
605.922	18751.980
606.050	18666.706
606.178	18770.588
606.306	18740.686
606.434	18835.471
606.563	18776.784
606.691	18827.627
606.819	18829.510
606.947	18782.176
607.075	18803.922
607.203	18742.333
607.331	18773.353
607.459	18756.765
607.588	18817.745
607.716	18838.647
607.844	18879.706
607.972	18860.020
608.100	18756.902
608.228	18742.176
608.356	18768.510
608.484	18707.059
608.613	18730.902
608.741	18720.373
608.869	18752.275
608.997	18796.588
609.125	18802.667
609.253	18722.118
609.381	18727.176
609.509	18633.824
609.638	18674.686
609.766	18681.882
609.894	18729.314
610.022	18630.490
610.150	18757.529
610.278	18683.980
610.406	18690.647
610.534	18667.627
610.663	18646.510
610.791	18791.059
610.919	18700.157
611.047	18706.451
611.175	18665.706
611.303	18710.353
611.431	18782.608
611.559	18765.745
611.688	18745.863
611.816	18695.961
611.944	18772.608
612.072	18768.059
612.200	18793.490
612.328	18828.529
612.456	18742.784
612.584	18933.157
612.713	18821.392
612.841	18902.549
612.969	18805.745
613.097	18827.725
613.225	18796.745
613.353	18842.373
613.481	18869.059
613.609	18918.490
613.738	18894.627
613.866	18979.510
613.994	18975.078
614.122	19016.961
614.250	18983.471
614.378	19035.294
614.506	18992.471
614.634	19076.863
614.763	18993.941
614.891	19081.412
615.019	19096.059
615.147	19098.373
615.275	19106.902
615.403	19211.608
615.531	19164.765
615.659	19234.725
615.788	19235.157
615.916	19391.902
616.044	19317.196
616.172	19494.000
616.300	19305.314
616.428	19491.902
616.556	19461.216
616.684	19492.863
616.813	19472.000
616.941	19463.333
617.069	19482.255
617.197	19736.255
617.325	19602.059
617.453	19655.059
617.581	19639.216
617.709	19665.412
617.838	19693.353
617.966	19717.863
618.094	19698.863
618.222	19757.333
618.350	19736.431
618.478	19713.314
618.606	19770.647
618.734	19747.529
618.863	19797.667
618.991	19740.784
619.119	19885.882
619.247	19762.431
619.375	19765.863
619.503	19849.647
619.631	19882.216
619.759	19767.686
619.888	19814.706
620.016	19905.000
620.144	19932.510
620.272	19879.569
620.400	19934.745
620.528	19941.294
620.656	19987.059
620.784	19963.549
620.913	19916.333
621.041	19983.980
621.169	20022.961
621.297	19939.196
621.425	19961.000
621.553	20012.216
621.681	20107.157
621.809	20082.804
621.938	20091.667
622.066	20247.176
622.194	20189.706
622.322	20171.471
622.450	20187.627
622.578	20218.824
622.706	20251.020
622.834	20276.745
622.963	20292.941
623.091	20284.824
623.219	20419.451
623.347	20491.373
623.475	20435.157
623.603	20478.961
623.731	20533.373
623.859	20553.745
623.988	20626.118
624.116	20610.627
624.244	20728.118
624.372	20719.020
624.500	20777.471
624.628	20774.275
624.756	20843.922
624.884	20963.275
625.013	21095.961
625.141	20949.353
625.269	20950.902
625.397	21091.667
625.525	21168.863
625.653	20977.020
625.781	21172.647
625.909	21087.765
626.038	21158.804
626.166	21108.843
626.294	21210.882
626.422	21175.647
626.550	21313.608
626.678	21300.039
626.806	21262.882
626.934	21375.745
627.063	21322.412
627.191	21432.627
627.319	21375.627
627.447	21466.392
627.575	21445.863
627.703	21450.980
627.831	21532.471
627.959	21449.451
628.088	21584.529
628.216	21593.745
628.344	21468.765
628.472	21487.000
628.600	21633.157
628.728	21453.020
628.856	21460.059
628.984	21448.725
629.113	21447.255
629.241	21406.922
629.369	21397.353
629.497	21427.549
629.625	21409.412
629.753	21429.510
629.881	21357.569
630.009	21330.118
630.138	21361.137
630.266	21344.353
630.394	21438.529
630.522	21446.529
630.650	21235.078
630.778	21242.843
630.906	21228.549
631.034	21190.333
631.163	21260.235
631.291	21246.275
631.419	21167.784
631.547	21061.725
631.675	21085.804
631.803	21033.294
631.931	21099.098
632.059	21171.176
632.188	21049.275
632.316	21062.235
632.444	21093.157
632.572	21028.882
632.700	21054.843
632.828	21067.059
632.956	20908.647
633.084	20915.784
633.213	21034.569
633.341	20962.784
633.469	20932.314
633.597	20920.392
633.725	20884.588
633.853	20938.176
633.981	20929.549
634.109	21099.471
634.238	20882.294
634.366	20938.000
634.494	20885.392
634.622	20871.235
634.750	20905.902
634.878	20873.804
635.006	20923.863
635.134	20818.980
635.263	20954.118
635.391	20804.745
635.519	20806.627
635.647	20873.353
635.775	20794.412
635.903	20842.902
636.031	20673.392
636.159	20650.843
636.288	20662.216
636.416	20695.255
636.544	20674.353
636.672	20697.275
636.800	20724.765
636.928	20708.549
637.056	20823.588
637.184	20772.863
637.313	20736.490
637.441	20887.137
637.569	20921.216
637.697	20943.765
637.825	20880.373
637.953	20914.686
638.081	20948.176
638.209	21049.863
638.338	21129.451
638.466	21107.235
638.594	21048.431
638.722	21136.725
638.850	21261.235
638.978	21209.353
639.106	21237.333
639.234	21198.255
639.363	21243.745
639.491	21254.176
639.619	21383.392
639.747	21392.431
639.875	21360.569
640.003	21410.157
640.131	21525.216
640.259	21465.961
640.388	21582.235
640.516	21617.510
640.644	21623.333
640.772	21705.176
640.900	21653.490
641.028	21663.255
641.156	21567.784
641.284	21617.569
641.413	21777.510
641.541	21706.765
641.669	21690.412
641.797	21833.784
641.925	21796.294
642.053	21893.961
642.181	21772.549
642.309	21816.235
642.438	21893.863
642.566	21881.980
642.694	22020.667
642.822	21831.451
642.950	21842.902
643.078	22021.804
643.206	21916.373
643.334	21972.490
643.463	21899.373
643.591	21918.275
643.719	22028.294
643.847	22035.745
643.975	22009.196
644.103	21985.196
644.231	22062.647
644.359	21948.529
644.488	22070.863
644.616	22037.490
644.744	22036.667
644.872	22093.804
645.000	22151.039
645.128	22131.667
645.256	22076.078
645.384	22208.039
645.513	22138.353
645.641	22118.686
645.769	22170.941
645.897	22252.510
646.025	22201.353
646.153	22091.667
646.281	22171.314
646.409	22123.137
646.538	22237.627
646.666	22161.569
646.794	22169.725
646.922	22136.137
647.050	22136.000
647.178	22120.784
647.306	22388.882
647.434	22151.647
647.563	22074.373
647.691	22126.549
647.819	22123.824
647.947	22116.608
648.075	22139.000
648.203	22184.627
648.331	22138.588
648.459	22081.706
648.588	22039.118
648.716	22164.314
648.844	22104.529
648.972	22031.843
649.100	22090.020
649.228	22075.863
649.356	22128.412
649.484	22095.216
649.613	22199.608
649.741	22094.784
649.869	22074.216
649.997	22090.176
650.125	22161.412
650.253	22145.333
650.381	22063.235
650.509	21964.255
650.638	22001.333
650.766	22199.922
650.894	22043.941
651.022	22066.176
651.150	22138.902
651.278	22061.549
651.406	22003.451
651.534	22051.941
651.663	22035.196
651.791	22328.549
651.919	22121.294
652.047	22045.333
652.175	22176.667
652.303	22157.176
652.431	22088.431
652.559	22170.725
652.688	22100.922
652.816	22215.412
652.944	22098.745
653.072	22117.922
653.200	22253.529
653.328	22188.216
653.456	22115.255
653.584	22319.804
653.713	22267.784
653.841	22350.314
653.969	22359.216
654.097	22441.059
654.225	22448.078
654.353	22467.804
654.481	22510.882
654.609	22574.353
654.738	22543.078
654.866	22548.078
654.994	22678.353
655.122	22593.451
655.250	22687.941
655.378	22579.804
655.506	22665.471
655.634	22713.431
655.763	22495.196
655.891	22507.294
656.019	22506.176
656.147	22554.902
656.275	22556.451
656.403	22502.157
656.531	22441.078
656.659	22488.412
656.788	22505.608
656.916	22486.824
657.044	22509.863
657.172	22513.176
657.300	22612.961
657.428	22414.725
657.556	22477.863
657.684	22429.784
657.813	22480.353
657.941	22379.510
658.069	22322.922
658.197	22315.098
658.325	22421.176
658.453	22350.569
658.581	22223.098
658.709	22217.353
658.838	22291.608
658.966	22245.765
659.094	22275.843
659.222	22181.902
659.350	22156.706
659.478	22188.216
659.606	22169.333
659.734	22161.275
659.863	22022.941
659.991	22003.882
660.119	22036.725
660.247	22217.490
660.375	22038.451
660.503	22046.941
660.631	22042.098
660.759	21904.843
660.888	21964.020
661.016	21867.314
661.144	21891.137
661.272	21873.882
661.400	21763.608
661.528	21857.667
661.656	21816.314
661.784	21786.118
661.913	21835.941
662.041	21953.000
662.169	21904.333
662.297	22004.569
662.425	21986.961
662.553	22085.294
662.681	21924.000
662.809	21994.294
662.938	21892.510
663.066	21968.922
663.194	21931.922
663.322	21989.627
663.450	21989.255
663.578	22034.804
663.706	22203.686
663.834	22037.922
663.963	22053.059
664.091	22128.627
664.219	22111.137
664.347	22223.922
664.475	22271.020
664.603	22162.569
664.731	22067.039
664.859	22195.118
664.988	22180.902
665.116	22173.275
665.244	22279.549
665.372	22316.333
665.500	22364.725
665.628	22265.922
665.756	22293.333
665.884	22355.373
666.013	22379.569
666.141	22415.843
666.269	22434.784
666.397	22427.235
666.525	22489.588
666.653	22455.765
666.781	22653.137
666.909	22632.451
667.038	22664.510
667.166	22668.373
667.294	22669.333
667.422	22694.510
667.550	22799.961
667.678	22877.765
667.806	22795.490
667.934	22847.392
668.063	22893.510
668.191	23031.275
668.319	23118.118
668.447	23074.824
668.575	23149.667
668.703	23220.941
668.831	23233.059
668.959	23277.941
669.088	23427.824
669.216	23350.961
669.344	23356.000
669.472	23365.765
669.600	23375.882
669.728	23484.843
669.856	23394.314
669.984	23392.216
670.113	23342.451
670.241	23358.725
670.369	23296.510
670.497	23384.627
670.625	23378.608
670.753	23620.078
670.881	23658.451
671.009	23467.000
671.138	23477.706
671.266	23320.549
671.394	23400.137
671.522	23436.706
671.650	23362.275
671.778	23356.725
671.906	23410.216
672.034	23374.039
672.163	23376.078
672.291	23420.922
672.419	23407.176
672.547	23324.902
672.675	23377.451
672.803	23340.608
672.931	23342.000
673.059	23330.255
673.188	23205.490
673.316	23276.098
673.444	23306.255
673.572	23427.490
673.700	23236.451
673.828	23186.569
673.956	23067.490
674.084	23076.451
674.213	23144.255
674.341	23098.843
674.469	23070.961
674.597	23003.863
674.725	23091.804
674.853	22917.922
674.981	22991.608
675.109	22926.294
675.238	22866.490
675.366	22884.882
675.494	22825.961
675.622	22835.627
675.750	22864.549
675.878	22811.137
676.006	22869.196
676.134	22838.294
676.263	22795.490
676.391	22795.333
676.519	22713.431
676.647	22773.902
676.775	22760.098
676.903	22928.686
677.031	22778.451
677.159	22756.804
677.288	22933.059
677.416	22739.471
677.544	22708.706
677.672	22660.353
677.800	22689.333
677.928	22695.843
678.056	22662.569
678.184	22701.294
678.313	22752.647
678.441	22633.765
678.569	22900.765
678.697	22659.196
678.825	22707.255
678.953	22758.608
679.081	22718.059
679.209	22700.373
679.338	22794.765
679.466	22689.784
679.594	22686.549
679.722	22691.549
679.850	22663.490
679.978	22701.804
680.106	22684.667
680.234	22670.902
680.363	22760.745
680.491	22625.824
680.619	22900.451
680.747	22787.588
680.875	22768.471
681.003	22792.765
681.131	22860.608
681.259	22807.039
681.388	22850.196
681.516	22985.882
681.644	22868.706
681.772	22989.922
681.900	22887.255
682.028	22921.392
682.156	22880.922
682.284	22905.667
682.413	23033.216
682.541	23032.059
682.669	23025.510
682.797	23161.765
682.925	23202.490
683.053	23278.333
683.181	23341.392
683.309	23358.333
683.438	23344.020
683.566	23534.569
683.694	23508.039
683.822	23516.059
683.950	23578.451
684.078	23547.608
684.206	23663.980
684.334	23614.843
684.463	23742.157
684.591	23534.412
684.719	23581.471
684.847	23596.490
684.975	23661.471
685.103	23573.235
685.231	23715.333
685.359	23639.784
685.488	23701.353
685.616	23719.059
685.744	23770.765
685.872	23825.784
686.000	23887.569
686.128	23821.431
686.256	23825.706
686.384	23873.863
686.513	23847.588
686.641	23963.118
686.769	23876.490
686.897	23980.078
687.025	23907.686
687.153	23916.196
687.281	23857.882
687.409	23859.020
687.538	23842.353
687.666	23821.275
687.794	23901.961
687.922	23829.510
688.050	23774.549
688.178	23938.882
688.306	23872.863
688.434	23788.824
688.563	23903.412
688.691	23893.882
688.819	23991.412
688.947	23878.431
689.075	23977.686
689.203	23996.157
689.331	23912.510
689.459	23946.196
689.588	24048.059
689.716	23961.059
689.844	23941.314
689.972	23881.824
690.100	23906.706
690.228	23934.510
690.356	23903.784
690.484	23979.078
690.613	23853.804
690.741	23891.647
690.869	23851.765
690.997	23892.098
691.125	24161.275
691.253	24092.627
691.381	23920.235
691.509	23823.961
691.638	23945.333
691.766	23850.569
691.894	23937.275
692.022	23907.157
692.150	23915.471
692.278	23852.804
692.406	23846.196
692.534	23802.549
692.663	23767.451
692.791	23758.431
692.919	23774.314
693.047	23730.980
693.175	23814.647
693.303	23912.980
693.431	23695.314
693.559	23684.216
693.688	23750.922
693.816	23625.765
693.944	23663.529
694.072	23619.412
694.200	23615.902
694.328	23602.392
694.456	23723.157
694.584	23671.000
694.713	23666.235
694.841	23536.843
694.969	23506.941
695.097	23737.020
695.225	23475.608
695.353	23583.137
695.481	23550.588
695.609	23714.804
695.738	23611.608
695.866	23544.588
695.994	23572.824
696.122	23761.098
696.250	23598.980
696.378	23556.392
696.506	23501.902
696.634	23540.980
696.763	23584.294
696.891	23528.451
697.019	23479.431
697.147	23584.784
697.275	23532.157
697.403	23526.255
697.531	23554.255
697.659	23517.882
697.788	23662.020
697.916	23579.627
698.044	23591.549
698.172	23612.863
698.300	23611.020
698.428	23587.627
698.556	23624.333
698.684	23579.412
698.813	23697.216
698.941	23745.216
699.069	23659.922
699.197	23627.784
699.325	23599.039
699.453	23594.824
699.581	23748.804
699.709	23647.804
699.838	23628.137
699.966	23599.000
700.094	23669.353
700.222	23788.941
700.350	23743.039
700.478	23723.647
700.606	23681.824
700.734	23642.157
700.863	23670.451
700.991	23639.843
701.119	23650.098
701.247	23660.961
701.375	23645.039
701.503	23497.078
701.631	23570.255
701.759	23607.549
701.888	23583.039
702.016	23683.490
702.144	23502.647
702.272	23612.373
702.400	23601.098
702.528	23705.353
702.656	23796.686
702.784	23597.353
702.913	23692.647
703.041	23690.176
703.169	23783.294
703.297	23720.196
703.425	23648.000
703.553	23707.137
703.681	23624.235
703.809	23665.804
703.938	23520.588
704.066	23616.353
704.194	23453.843
704.322	23384.275
704.450	23327.745
704.578	23392.176
704.706	23376.529
704.834	23338.627
704.963	23280.608
705.091	23205.922
705.219	23284.471
705.347	23139.529
705.475	23142.510
705.603	23152.843
705.731	23173.196
705.859	23014.784
705.988	23031.882
706.116	23012.157
706.244	22925.314
706.372	23017.510
706.500	22933.902
706.628	22979.235
706.756	22961.373
706.884	22879.647
707.013	22958.333
707.141	22847.275
707.269	22886.686
707.397	22792.686
707.525	22765.275
707.653	22693.176
707.781	22630.863
707.909	22552.176
708.038	22536.039
708.166	22452.627
708.294	22404.922
708.422	22297.569
708.550	22283.333
708.678	22264.608
708.806	22338.059
708.934	22176.157
709.063	22231.451
709.191	22164.882
709.319	22152.490
709.447	22202.294
709.575	22188.706
709.703	22190.078
709.831	22312.588
709.959	22240.255
710.088	22374.118
710.216	22448.765
710.344	22361.843
710.472	22459.471
710.600	22518.255
710.728	22453.235
710.856	22447.980
710.984	22566.137
711.113	22527.314
711.241	22562.196
711.369	22656.784
711.497	22555.392
711.625	22519.255
711.753	22573.353
711.881	22530.961
712.009	22676.922
712.138	22647.216
712.266	22579.608
712.394	22590.392
712.522	22593.412
712.650	22601.627
712.778	22643.118
712.906	22605.843
713.034	22544.980
713.163	22636.706
713.291	22632.255
713.419	22645.549
713.547	22612.569
713.675	22616.549
713.803	22591.569
713.931	22699.725
714.059	22644.275
714.188	22671.412
714.316	22643.941
714.444	22662.373
714.572	22892.824
714.700	22620.235
714.828	22688.569
714.956	22776.667
715.084	22727.608
715.213	22743.118
715.341	22733.922
715.469	22756.392
715.597	22863.961
715.725	22723.804
715.853	22739.020
715.981	22762.118
716.109	22767.020
716.238	22737.843
716.366	22793.490
716.494	22850.039
716.622	22732.471
716.750	22804.196
716.878	22872.608
717.006	22758.980
717.134	22669.902
717.263	22685.176
717.391	22773.784
717.519	22642.157
717.647	22653.588
717.775	22604.706
717.903	22528.745
718.031	22476.647
718.159	22537.176
718.288	22560.392
718.416	22451.216
718.544	22426.431
718.672	22436.706
718.800	22359.725
718.928	22416.882
719.056	22334.882
719.184	22374.549
719.313	22301.078
719.441	22320.667
719.569	22260.588
719.697	22261.725
719.825	22277.588
719.953	22171.098
720.081	22105.627
720.209	22085.882
720.338	22013.118
720.466	21990.490
720.594	21999.294
720.722	22041.157
720.850	21935.275
720.978	21894.627
721.106	21824.608
721.234	21787.725
721.363	21768.902
721.491	21689.902
721.619	21699.725
721.747	21602.039
721.875	21613.627
722.003	21520.294
722.131	21459.529
722.259	21461.392
722.388	21526.471
722.516	21296.118
722.644	21380.961
722.772	21237.882
722.900	21240.647
723.028	21167.255
723.156	21182.647
723.284	21151.039
723.413	21134.118
723.541	21096.980
723.669	21062.255
723.797	21037.216
723.925	21022.902
724.053	20982.098
724.181	20920.529
724.309	20918.412
724.438	20856.882
724.566	20922.118
724.694	20758.510
724.822	20700.176
724.950	20775.529
725.078	20674.275
725.206	20599.549
725.334	20621.333
725.463	20583.176
725.591	20600.980
725.719	20637.176
725.847	20511.196
725.975	20525.294
726.103	20522.392
726.231	20455.725
726.359	20491.216
726.488	20677.451
726.616	20387.784
726.744	20389.235
726.872	20474.137
727.000	20523.078
727.128	20507.020
727.256	20566.843
727.384	20497.275
727.513	20421.784
727.641	20415.471
727.769	20453.157
727.897	20443.176
728.025	20443.784
728.153	20402.176
728.281	20471.412
728.409	20430.725
728.538	20377.784
728.666	20398.922
728.794	20432.549
728.922	20396.941
729.050	20486.863
729.178	20464.294
729.306	20443.157
729.434	20476.843
729.563	20461.157
729.691	20404.000
729.819	20411.392
729.947	20475.863
730.075	20458.373
730.203	20362.098
730.331	20419.686
730.459	20420.255
730.588	20384.824
730.716	20480.176
730.844	20413.137
730.972	20410.216
731.100	20411.510
731.228	20530.216
731.356	20568.529
731.484	20538.412
731.613	20481.490
731.741	20554.157
731.869	20509.157
731.997	20517.137
732.125	20587.118
732.253	20655.843
732.381	20599.824
732.509	20753.196
732.638	20685.157
732.766	20658.961
732.894	20759.118
733.022	20697.784
733.150	20730.588
733.278	20729.451
733.406	20699.941
733.534	20742.804
733.663	20747.098
733.791	20852.765
733.919	20850.118
734.047	20727.510
734.175	20720.275
734.303	20772.157
734.431	20741.412
734.559	20723.275
734.688	20741.804
734.816	20722.745
734.944	20823.843
735.072	20844.490
735.200	20820.196
735.328	20761.765
735.456	20794.725
735.584	20840.059
735.713	20859.980
735.841	20794.216
735.969	21001.667
736.097	20819.824
736.225	20819.490
736.353	20833.078
736.481	20851.333
736.609	20843.961
736.738	20802.431
736.866	20726.157
736.994	20831.765
737.122	20836.745
737.250	20830.863
737.378	20827.902
737.506	20752.765
737.634	20753.608
737.763	20807.314
737.891	20886.373
738.019	20759.078
738.147	20912.686
738.275	20678.549
738.403	20802.529
738.531	20767.922
738.659	20828.235
738.788	20735.314
738.916	20823.137
739.044	20868.216
739.172	20770.137
739.300	20792.176
739.428	20818.627
739.556	20667.824
739.684	20658.863
739.813	20764.216
739.941	20729.235
740.069	20722.882
740.197	20624.863
740.325	20654.216
740.453	20725.373
740.581	20675.373
740.709	20534.490
740.838	20505.490
740.966	20503.824
741.094	20524.647
741.222	20516.451
741.350	20577.216
741.478	20515.490
741.606	20403.608
741.734	20436.039
741.863	20411.804
741.991	20374.294
742.119	20370.804
742.247	20527.824
742.375	20375.843
742.503	20355.569
742.631	20362.235
742.759	20342.980
742.888	20390.353
743.016	20323.608
743.144	20209.373
743.272	20291.333
743.400	20335.961
743.528	20275.765
743.656	20266.157
743.784	20460.000
743.913	20213.922
744.041	20230.686
744.169	20198.784
744.297	20373.314
744.425	20146.118
744.553	20156.843
744.681	20126.863
744.809	20108.745
744.938	20040.000
745.066	20119.412
745.194	20056.588
745.322	20090.275
745.450	19988.392
745.578	20078.078
745.706	20108.059
745.834	19997.608
745.963	20011.353
746.091	20062.078
746.219	19988.255
746.347	19994.765
746.475	19879.294
746.603	19952.216
746.731	19924.059
746.859	19937.471
746.988	19884.843
747.116	19950.451
747.244	19841.176
747.372	19884.569
747.500	19834.549
747.628	19876.941
747.756	19878.118
747.884	19963.431
748.013	19965.765
748.141	19892.471
748.269	19874.961
748.397	19882.608
748.525	19893.784
748.653	19910.039
748.781	19973.000
748.909	19892.961
749.038	19991.569
749.166	19890.157
749.294	20017.353
749.422	19876.863
749.550	19901.706
749.678	19875.157
749.806	19900.902
749.934	19870.275
750.063	19889.275
750.191	19982.216
750.319	19825.569
750.447	19918.706
750.575	19952.333
750.703	19852.961
750.831	19915.157
750.959	19959.980
751.088	19898.235
751.216	19888.275
751.344	19880.275
751.472	19868.745
751.600	19922.745
751.728	19923.863
751.856	19849.000
751.984	19858.627
752.113	19915.000
752.241	19824.451
752.369	19787.196
752.497	19950.333
752.625	19814.824
752.753	19901.353
752.881	19863.353
753.009	19777.549
753.138	19821.863
753.266	19821.118
753.394	19807.196
753.522	19784.275
753.650	19754.706
753.778	19792.118
753.906	19726.392
754.034	19761.569
754.163	19750.647
754.291	19932.157
754.419	19812.275
754.547	19712.961
754.675	19816.078
754.803	19789.706
754.931	19834.118
755.059	19817.235
755.188	19849.137
755.316	19709.569
755.444	19755.000
755.572	19734.059
755.700	19673.059
755.828	19700.765
755.956	19705.569
756.084	19689.608
756.213	19675.412
756.341	19695.569
756.469	19710.118
756.597	19742.510
756.725	19691.961
756.853	19677.294
756.981	19730.451
757.109	19664.510
757.238	19638.020
757.366	19591.863
757.494	19646.647
757.622	19577.765
757.750	19582.020
757.878	19592.039
758.006	19534.000
758.134	19533.824
758.263	19482.333
758.391	19556.157
758.519	19553.902
758.647	19548.863
758.775	19469.392
758.903	19444.510
759.031	19475.980
759.159	19396.000
759.288	19555.922
759.416	19362.804
759.544	19446.235
759.672	19419.510
759.800	19494.431
759.928	19418.686
760.056	19514.373
760.184	19362.706
760.313	19356.980
760.441	19362.333
760.569	19305.588
760.697	19297.059
760.825	19243.863
760.953	19303.118
761.081	19224.471
761.209	19204.098
761.338	19148.176
761.466	19234.784
761.594	19372.765
761.722	19300.863
761.850	19149.882
761.978	19098.922
762.106	19191.627
762.234	19127.922
762.363	19103.882
762.491	19086.549
762.619	19130.765
762.747	19107.510
762.875	19067.216
763.003	19030.137
763.131	18897.667
763.259	18987.922
763.388	18930.569
763.516	18968.275
763.644	18942.118
763.772	18896.157
763.900	18960.588
764.028	18916.902
764.156	18924.745
764.284	18839.647
764.413	18853.353
764.541	18944.686
764.669	18841.824
764.797	18908.882
764.925	18775.039
765.053	18744.392
765.181	18768.216
765.309	18787.020
765.438	18706.824
765.566	18767.922
765.694	18751.392
765.822	18869.941
765.950	18781.529
766.078	18705.863
766.206	18612.137
766.334	18628.549
766.463	18633.314
766.591	18726.647
766.719	18712.373
766.847	18689.431
766.975	18691.451
767.103	18618.098
767.231	18695.529
767.359	18605.863
767.488	18634.294
767.616	18575.882
767.744	18599.431
767.872	18642.843
768.000	18578.157
768.128	18645.686
768.256	18597.922
768.384	18559.569
768.513	18596.451
768.641	18554.882
768.769	18614.608
768.897	18565.157
769.025	18659.490
769.153	18477.902
769.281	18546.392
769.409	18492.451
769.538	18522.000
769.666	18509.588
769.794	18482.627
769.922	18593.196
770.050	18527.961
770.178	18485.059
770.306	18458.804
770.434	18426.137
770.563	18385.137
770.691	18463.843
770.819	18387.059
770.947	18391.098
771.075	18332.353
771.203	18364.176
771.331	18481.686
771.459	18343.882
771.588	18329.882
771.716	18337.176
771.844	18311.235
771.972	18357.667
772.100	18214.922
772.228	18250.157
772.356	18268.137
772.484	18116.039
772.613	18120.667
772.741	18143.529
772.869	18310.902
772.997	18177.059
773.125	18304.706
773.253	18307.039
773.381	18164.882
773.509	18184.961
773.638	18236.020
773.766	18207.294
773.894	18063.098
774.022	18165.490
774.150	18118.725
774.278	18060.902
774.406	18118.784
774.534	18163.314
774.663	18155.000
774.791	18013.686
774.919	18057.706
775.047	18043.275
775.175	18025.176
775.303	18094.392
775.431	17965.745
775.559	18007.451
775.688	18002.667
775.816	18099.667
775.944	17992.000
776.072	18104.588
776.200	18047.588
776.328	18010.216
776.456	17993.392
776.584	18023.451
776.713	18082.941
776.841	18003.333
776.969	18116.588
777.097	18093.294
777.225	18072.059
777.353	18058.392
777.481	18043.549
777.609	18111.039
777.738	18018.608
777.866	18096.157
777.994	18080.275
778.122	18123.216
778.250	18125.412
778.378	18120.451
778.506	18132.922
778.634	18042.588
778.763	18211.118
778.891	18080.569
779.019	18158.471
779.147	18058.137
779.275	18188.824
779.403	18135.588
779.531	18121.235
779.659	18101.824
779.788	18096.275
779.916	18107.608
780.044	18014.431
780.172	18158.235
780.300	18080.686
780.428	18104.588
780.556	18142.078
780.684	18090.824
780.813	18055.275
780.941	18017.784
781.069	18024.314
781.197	18143.294
781.325	18223.627
781.453	18006.863
781.581	18061.451
781.709	17967.333
781.838	18042.784
781.966	17943.961
782.094	17922.804
782.222	18023.686
782.350	17906.294
782.478	18013.725
782.606	17914.118
782.734	17971.980
782.863	17832.882
782.991	17906.078
783.119	17951.784
783.247	17926.922
783.375	17947.314
783.503	17959.314
783.631	17978.020
783.759	17875.608
783.888	17913.235
784.016	17853.255
784.144	17861.706
784.272	17804.549
784.400	17940.745
784.528	17886.196
784.656	17896.922
784.784	17801.431
784.913	17757.824
785.041	17760.137
785.169	17730.235
785.297	17760.137
785.425	17741.333
785.553	17730.569
785.681	17680.824
785.809	17809.176
785.938	17730.431
786.066	17619.000
786.194	17593.314
786.322	17573.608
786.450	17550.784
786.578	17512.882
786.706	17542.294
786.834	17471.235
786.963	17573.588
787.091	17447.078
787.219	17443.627
787.347	17408.686
787.475	17400.314
787.603	17419.961
787.731	17431.451
787.859	17426.608
787.988	17538.255
788.116	17471.647
788.244	17408.098
788.372	17305.176
788.500	17362.843
788.628	17345.647
788.756	17321.118
788.884	17346.196
789.013	17277.412
789.141	17322.216
789.269	17331.412
789.397	17186.980
789.525	17257.725
789.653	17195.804
789.781	17171.529
789.909	17071.490
790.038	17097.059
790.166	17103.608
790.294	17022.588
790.422	17026.353
790.550	16990.255
790.678	16879.863
790.806	16884.863
790.934	16961.275
791.063	16904.176
791.191	16966.529
791.319	16784.451
791.447	16886.059
791.575	16821.549
791.703	16798.118
791.831	16826.667
791.959	16843.216
792.088	16868.686
792.216	16781.529
792.344	16826.275
792.472	16688.490
792.600	16817.373
792.728	16756.098
792.856	16848.765
792.984	16703.451
793.113	16698.882
793.241	16664.490
793.369	16659.608
793.497	16656.725
793.625	16640.235
793.753	16619.882
793.881	16498.627
794.009	16538.490
794.138	16442.863
794.266	16513.863
794.394	16443.588
794.522	16481.686
794.650	16364.392
794.778	16446.745
794.906	16369.118
795.034	16355.902
795.163	16339.745
795.291	16395.804
795.419	16497.392
795.547	16377.843
795.675	16378.039
795.803	16443.686
795.931	16273.667
796.059	16241.941
796.188	16304.627
796.316	16203.451
796.444	16278.216
796.572	16226.765
796.700	16273.373
796.828	16168.765
796.956	16165.471
797.084	16119.039
797.213	16046.059
797.341	16043.725
797.469	16086.549
797.597	16045.784
797.725	16011.275
797.853	15992.020
797.981	15929.863
798.109	15918.510
798.238	15899.255
798.366	15958.608
798.494	15827.373
798.622	15877.020
798.750	15854.745
798.878	15773.059
799.006	15759.608
799.134	15769.255
799.263	15691.980
799.391	15694.039
799.519	15707.863
799.647	15630.980
799.775	15620.765
799.903	15599.216
800.031	15536.882
800.159	15542.882
800.288	15463.980
800.416	15422.980
800.544	15399.569
800.672	15283.863
800.800	15387.157
800.928	15271.098
801.056	15281.941
801.184	15306.627
801.313	15283.235
801.441	15211.157
801.569	15244.333
801.697	15188.922
801.825	15196.020
801.953	15183.000
802.081	15252.824
802.209	15129.451
802.338	15090.059
802.466	15035.863
802.594	15076.627
802.722	15011.549
802.850	14960.824
802.978	14987.314
803.106	14976.373
803.234	15013.608
803.363	14916.922
803.491	14951.784
803.619	14841.020
803.747	14838.059
803.875	14720.294
804.003	14776.412
804.131	14801.686
804.259	14748.608
804.388	14667.706
804.516	14669.902
804.644	14692.706
804.772	14700.647
804.900	14620.000
805.028	14650.784
805.156	14625.235
805.284	14620.922
805.413	14685.078
805.541	14690.078
805.669	14658.549
805.797	14628.824
805.925	14570.902
806.053	14514.941
806.181	14560.824
806.309	14456.059
806.438	14421.804
806.566	14511.549
806.694	14451.039
806.822	14358.431
806.950	14376.059
807.078	14293.902
807.206	14286.392
807.334	14271.373
807.463	14268.706
807.591	14188.471
807.719	14242.020
807.847	14189.588
807.975	14188.745
808.103	14139.647
808.231	14114.510
808.359	14038.275
808.488	14023.824
808.616	13993.235
808.744	13940.882
808.872	13931.098
809.000	13913.020
809.128	14038.431
809.256	13813.706
809.384	13816.627
809.513	13733.078
809.641	13788.627
809.769	13729.667
809.897	13764.039
810.025	13730.255
810.153	13702.333
810.281	13780.843
810.409	13753.588
810.538	13721.255
810.666	13715.294
810.794	13699.216
810.922	13706.667
811.050	13721.765
811.178	13720.863
811.306	13621.471
811.434	13707.294
811.563	13666.784
811.691	13671.176
811.819	13658.686
811.947	13601.235
812.075	13589.294
812.203	13593.314
812.331	13501.098
812.459	13553.118
812.588	13513.745
812.716	13502.392
812.844	13402.275
812.972	13359.333
813.100	13356.451
813.228	13284.725
813.356	13283.608
813.484	13337.608
813.613	13350.471
813.741	13344.392
813.869	12802.275
