spectrometer_90_60nm_hybrid_at_650.00nm_cut_at_1184.50Y_01.dat
02.05.2022
11:54:14
cut middle at Y: 1184.50
top cursor: 1210 down cursor: 1159 mean of: 51 lines , 2560 datapoints
wavelength(nm)	intensity[arb. units]
485.997	5975.275
486.125	5444.039
486.253	5346.235
486.381	5304.078
486.510	5334.784
486.638	5445.451
486.766	5406.667
486.894	5432.333
487.022	5479.353
487.150	5505.294
487.278	5476.451
487.406	5497.216
487.535	5551.059
487.663	5591.686
487.791	5589.314
487.919	5586.039
488.047	5596.392
488.175	5642.824
488.303	5661.843
488.431	5665.549
488.560	5681.157
488.688	5713.431
488.816	5697.686
488.944	5801.176
489.072	5806.980
489.200	5802.059
489.328	5801.353
489.456	5861.569
489.585	5848.902
489.713	5871.510
489.841	5848.529
489.969	5855.882
490.097	5889.529
490.225	5862.294
490.353	5946.745
490.481	5899.765
490.610	5902.118
490.738	5879.804
490.866	5940.922
490.994	5880.255
491.122	5941.353
491.250	5894.078
491.378	5961.490
491.506	6051.000
491.635	5949.392
491.763	5958.235
491.891	5962.059
492.019	6030.275
492.147	5962.078
492.275	5966.922
492.403	5950.353
492.531	6106.706
492.660	6010.686
492.788	6033.765
492.916	6120.373
493.044	6020.608
493.172	6059.627
493.300	6065.549
493.428	6064.020
493.556	6141.275
493.685	6148.667
493.813	6158.941
493.941	6194.627
494.069	6221.333
494.197	6192.196
494.325	6292.373
494.453	6416.804
494.581	6322.588
494.710	6379.490
494.838	6373.510
494.966	6468.745
495.094	6438.000
495.222	6526.588
495.350	6528.255
495.478	6523.039
495.606	6585.961
495.735	6581.941
495.863	6613.961
495.991	6607.608
496.119	6643.824
496.247	6707.196
496.375	6625.745
496.503	6675.059
496.631	6663.275
496.760	6678.451
496.888	6699.000
497.016	6673.804
497.144	6685.392
497.272	6697.745
497.400	6700.216
497.528	6699.098
497.656	6643.765
497.785	6661.353
497.913	6678.961
498.041	6699.353
498.169	6651.275
498.297	6631.412
498.425	6814.333
498.553	6685.235
498.681	6698.961
498.810	6707.275
498.938	6691.608
499.066	6730.235
499.194	6752.314
499.322	6738.980
499.450	6710.196
499.578	6691.647
499.706	6755.627
499.835	6784.608
499.963	6769.549
500.091	6789.157
500.219	6780.353
500.347	6805.451
500.475	6787.725
500.603	6833.314
500.731	6831.745
500.860	6861.235
500.988	6925.804
501.116	6844.059
501.244	6935.353
501.372	6972.373
501.500	6968.549
501.628	7001.392
501.756	7009.353
501.885	7100.588
502.013	7020.824
502.141	7096.157
502.269	7057.902
502.397	7213.922
502.525	7152.608
502.653	7222.961
502.781	7186.863
502.910	7171.922
503.038	7265.510
503.166	7304.137
503.294	7251.333
503.422	7297.941
503.550	7284.529
503.678	7294.902
503.806	7326.216
503.935	7308.078
504.063	7328.412
504.191	7320.196
504.319	7323.314
504.447	7308.451
504.575	7326.490
504.703	7310.902
504.831	7280.255
504.960	7284.686
505.088	7338.725
505.216	7336.882
505.344	7396.471
505.472	7369.804
505.600	7323.902
505.728	7442.941
505.856	7397.471
505.985	7398.039
506.113	7386.706
506.241	7408.686
506.369	7389.824
506.497	7378.235
506.625	7477.980
506.753	7452.118
506.881	7506.490
507.010	7452.471
507.138	7485.314
507.266	7581.314
507.394	7541.941
507.522	7622.824
507.650	7602.412
507.778	7620.255
507.906	7646.863
508.035	7639.843
508.163	7698.627
508.291	7712.157
508.419	7810.784
508.547	7767.314
508.675	7801.765
508.803	7782.902
508.931	7841.431
509.060	7839.804
509.188	7845.314
509.316	7838.078
509.444	7833.765
509.572	7999.588
509.700	7891.569
509.828	7934.059
509.956	7969.706
510.085	7916.373
510.213	7963.490
510.341	7919.000
510.469	7998.882
510.597	7965.843
510.725	7944.039
510.853	8024.765
510.981	8030.980
511.110	8001.392
511.238	8008.176
511.366	8032.686
511.494	8026.725
511.622	8047.569
511.750	8085.000
511.878	8117.275
512.006	8044.529
512.135	8125.059
512.263	8110.608
512.391	8097.020
512.519	8105.765
512.647	8091.373
512.775	8157.725
512.903	8124.137
513.031	8146.294
513.160	8076.078
513.288	8210.922
513.416	8097.059
513.544	8167.412
513.672	8123.745
513.800	8179.490
513.928	8182.765
514.056	8214.118
514.185	8150.824
514.313	8139.843
514.441	8237.725
514.569	8163.784
514.697	8139.961
514.825	8116.843
514.953	8139.314
515.081	8103.137
515.210	8110.078
515.338	8227.118
515.466	8090.137
515.594	8143.275
515.722	8131.451
515.850	8125.863
515.978	8085.294
516.106	8130.314
516.235	8081.392
516.363	8118.725
516.491	8118.882
516.619	8140.118
516.747	8192.431
516.875	8141.647
517.003	8146.118
517.131	8148.353
517.260	8139.980
517.388	8198.275
517.516	8210.549
517.644	8227.176
517.772	8265.765
517.900	8218.686
518.028	8286.235
518.156	8306.118
518.284	8289.941
518.413	8318.039
518.541	8359.667
518.669	8347.804
518.797	8435.961
518.925	8400.608
519.053	8461.510
519.181	8431.706
519.309	8493.333
519.438	8531.961
519.566	8586.235
519.694	8533.529
519.822	8641.706
519.950	8626.882
520.078	8623.216
520.206	8651.706
520.334	8729.294
520.463	8656.843
520.591	8729.314
520.719	8724.667
520.847	8729.941
520.975	8698.549
521.103	8758.059
521.231	8686.765
521.359	8848.980
521.488	8735.882
521.616	8788.176
521.744	8678.471
521.872	8790.196
522.000	8656.647
522.128	8723.137
522.256	8719.510
522.384	8687.706
522.513	8660.118
522.641	8625.863
522.769	8687.275
522.897	8685.451
523.025	8652.725
523.153	8591.353
523.281	8673.039
523.409	8580.902
523.538	8638.647
523.666	8570.686
523.794	8596.902
523.922	8585.745
524.050	8569.843
524.178	8563.275
524.306	8574.627
524.434	8637.000
524.563	8632.980
524.691	8752.745
524.819	8594.922
524.947	8660.333
525.075	8652.529
525.203	8660.333
525.331	8694.902
525.459	8824.980
525.588	8770.059
525.716	8819.431
525.844	8798.647
525.972	8899.902
526.100	8857.804
526.228	8899.804
526.356	8915.745
526.484	8973.471
526.613	8938.608
526.741	9040.314
526.869	9073.196
526.997	9096.686
527.125	9144.843
527.253	9081.647
527.381	9207.569
527.509	9174.020
527.638	9294.118
527.766	9306.745
527.894	9285.118
528.022	9425.941
528.150	9305.765
528.278	9402.373
528.406	9449.686
528.534	9435.235
528.663	9469.980
528.791	9562.235
528.919	9474.118
529.047	9617.000
529.175	9493.510
529.303	9529.059
529.431	9499.843
529.559	9535.333
529.688	9488.176
529.816	9498.020
529.944	9590.255
530.072	9557.000
530.200	9592.863
530.328	9588.941
530.456	9588.255
530.584	9578.667
530.713	9633.824
530.841	9654.255
530.969	9612.157
531.097	9570.784
531.225	9615.627
531.353	9731.098
531.481	9624.196
531.609	9743.529
531.738	9614.824
531.866	9679.196
531.994	9659.039
532.122	9743.059
532.250	9664.216
532.378	9614.941
532.506	9602.373
532.634	9588.725
532.763	9555.902
532.891	9551.706
533.019	9549.608
533.147	9537.255
533.275	9499.686
533.403	9585.451
533.531	9591.608
533.659	9580.157
533.788	9602.961
533.916	9526.118
534.044	9564.098
534.172	9605.098
534.300	9559.490
534.428	9546.373
534.556	9768.961
534.684	9625.549
534.813	9572.431
534.941	9558.157
535.069	9604.784
535.197	9625.902
535.325	9600.627
535.453	9624.157
535.581	9692.745
535.709	9583.294
535.838	9612.098
535.966	9612.922
536.094	9586.118
536.222	9634.431
536.350	9630.314
536.478	9588.373
536.606	9652.765
536.734	9631.275
536.863	9644.353
536.991	9668.843
537.119	9707.059
537.247	9666.706
537.375	9821.588
537.503	9706.078
537.631	9700.588
537.759	9715.902
537.888	9682.667
538.016	9858.902
538.144	9780.902
538.272	9733.725
538.400	9799.216
538.528	9755.569
538.656	9763.000
538.784	9797.529
538.913	9869.137
539.041	9853.784
539.169	9864.706
539.297	9899.588
539.425	9994.216
539.553	9915.098
539.681	9984.471
539.809	10009.647
539.938	10013.196
540.066	10050.314
540.194	10021.882
540.322	10148.471
540.450	10195.686
540.578	10136.961
540.706	10175.412
540.834	10169.843
540.963	10291.392
541.091	10211.961
541.219	10237.314
541.347	10324.980
541.475	10292.784
541.603	10281.118
541.731	10284.961
541.859	10297.588
541.988	10322.471
542.116	10551.824
542.244	10401.314
542.372	10542.255
542.500	10427.529
542.628	10463.059
542.756	10417.039
542.884	10436.627
543.013	10449.765
543.141	10540.353
543.269	10456.961
543.397	10425.176
543.525	10433.529
543.653	10501.118
543.781	10421.686
543.909	10415.941
544.038	10497.510
544.166	10472.000
544.294	10558.667
544.422	10395.314
544.550	10486.863
544.678	10500.059
544.806	10371.725
544.934	10392.941
545.063	10441.686
545.191	10520.667
545.319	10427.294
545.447	10314.667
545.575	10327.980
545.703	10379.824
545.831	10384.353
545.959	10352.549
546.088	10293.216
546.216	10329.451
546.344	10340.314
546.472	10511.961
546.600	10339.804
546.728	10274.706
546.856	10348.314
546.984	10343.510
547.113	10421.784
547.241	10460.431
547.369	10474.588
547.497	10422.882
547.625	10456.137
547.753	10401.627
547.881	10380.157
548.009	10387.098
548.138	10359.020
548.266	10301.824
548.394	10404.784
548.522	10285.765
548.650	10412.078
548.778	10310.314
548.906	10256.118
549.034	10310.353
549.163	10220.373
549.291	10222.824
549.419	10254.431
549.547	10479.569
549.675	10440.314
549.803	10431.588
549.931	10452.020
550.059	10566.529
550.188	10648.098
550.316	10655.353
550.444	10715.235
550.572	10759.765
550.700	10784.647
550.828	10862.706
550.956	10839.137
551.084	11002.235
551.213	10927.882
551.341	10998.588
551.469	10991.392
551.597	11105.490
551.725	11140.000
551.853	11101.431
551.981	11153.843
552.109	11105.804
552.238	11185.078
552.366	11121.588
552.494	11110.706
552.622	11102.490
552.750	11148.961
552.878	11180.392
553.006	11227.569
553.134	11170.804
553.263	11168.157
553.391	11241.902
553.519	11376.608
553.647	11233.843
553.775	11258.510
553.903	11362.627
554.031	11287.745
554.159	11299.039
554.288	11322.333
554.416	11311.392
554.544	11350.431
554.672	11326.843
554.800	11357.039
554.928	11317.961
555.056	11285.471
555.184	11299.961
555.313	11263.059
555.441	11292.980
555.569	11291.412
555.697	11363.490
555.825	11284.294
555.953	11298.980
556.081	11266.765
556.209	11288.314
556.338	11328.706
556.466	11500.490
556.594	11316.471
556.722	11405.176
556.850	11489.588
556.978	11317.176
557.106	11356.176
557.234	11371.608
557.363	11449.706
557.491	11407.235
557.619	11421.667
557.747	11438.569
557.875	11419.529
558.003	11475.745
558.131	11487.216
558.259	11459.353
558.388	11474.824
558.516	11501.902
558.644	11490.882
558.772	11582.588
558.900	11525.196
559.028	11492.765
559.156	11586.588
559.284	11580.255
559.413	11558.627
559.541	11574.255
559.669	11660.451
559.797	11677.608
559.925	11574.843
560.053	11722.765
560.181	11641.980
560.309	11705.020
560.438	11743.275
560.566	11727.255
560.694	11678.765
560.822	11889.824
560.950	11760.255
561.078	11786.765
561.206	11860.412
561.334	11764.314
561.463	11712.118
561.591	11878.235
561.719	11791.235
561.847	11846.118
561.975	11798.255
562.103	11754.529
562.231	11885.235
562.359	11775.686
562.488	11822.451
562.616	11802.667
562.744	11825.275
562.872	11841.059
563.000	11759.706
563.128	11762.333
563.256	11809.275
563.384	11909.863
563.513	11744.216
563.641	11819.686
563.769	11842.569
563.897	11779.392
564.025	11782.804
564.153	11785.039
564.281	11880.843
564.409	11764.667
564.538	11830.471
564.666	11862.078
564.794	11875.882
564.922	11875.706
565.050	11906.353
565.178	11857.804
565.306	11956.098
565.434	11964.804
565.563	12115.882
565.691	12065.804
565.819	12231.333
565.947	12023.686
566.075	12050.118
566.203	12089.667
566.331	12090.627
566.459	12879.490
566.588	12134.392
566.716	12233.941
566.844	12210.078
566.972	12343.137
567.100	12358.412
567.228	12401.490
567.356	12529.843
567.484	12429.314
567.613	12480.784
567.741	12524.588
567.869	12504.824
567.997	12588.863
568.125	12669.725
568.253	12744.098
568.381	12708.294
568.509	12710.647
568.638	12726.765
568.766	12743.078
568.894	12798.569
569.022	12732.451
569.150	12816.294
569.278	12776.647
569.406	12940.059
569.534	12945.235
569.663	12886.353
569.791	12965.765
569.919	12967.275
570.047	13147.235
570.175	12993.412
570.303	12986.922
570.431	12936.098
570.559	13099.000
570.688	13233.667
570.816	13065.882
570.944	13110.059
571.072	13094.118
571.200	13097.000
571.328	13072.020
571.456	13148.451
571.584	13102.647
571.713	13134.529
571.841	13116.412
571.969	13248.216
572.097	13293.353
572.225	13045.255
572.353	13090.549
572.481	12986.941
572.609	13055.588
572.738	12995.392
572.866	12946.020
572.994	13019.000
573.122	12995.157
573.250	12980.961
573.378	12934.706
573.506	12930.216
573.634	12957.275
573.763	12845.471
573.891	12855.686
574.019	12865.490
574.147	12799.549
574.275	12804.667
574.403	12850.275
574.531	12808.255
574.659	12756.902
574.788	12798.549
574.916	12929.784
575.044	12760.961
575.172	12751.451
575.300	12735.078
575.428	12711.569
575.556	12694.667
575.684	12732.882
575.813	12651.804
575.941	12673.235
576.069	12641.490
576.197	12623.333
576.325	12626.333
576.453	12570.275
576.581	12548.902
576.709	12515.725
576.838	12557.098
576.966	12675.627
577.094	12717.059
577.222	12545.588
577.350	12491.235
577.478	12630.216
577.606	12509.216
577.734	12603.059
577.863	12668.902
577.991	12712.078
578.119	12759.843
578.247	12713.647
578.375	12798.863
578.503	12753.863
578.631	12788.980
578.759	12804.392
578.888	12980.922
579.016	12804.490
579.144	12850.549
579.272	12840.529
579.400	12942.314
579.528	12978.078
579.656	13026.392
579.784	12953.686
579.913	13000.980
580.041	13218.373
580.169	13000.686
580.297	13116.569
580.425	13126.157
580.553	13145.059
580.681	13138.000
580.809	13157.373
580.938	13212.667
581.066	13280.882
581.194	13268.098
581.322	13241.706
581.450	13328.569
581.578	13292.882
581.706	13308.353
581.834	13419.275
581.963	13376.412
582.091	13403.118
582.219	13446.333
582.347	13442.118
582.475	13428.980
582.603	13437.961
582.731	13573.294
582.859	13447.000
582.988	13480.549
583.116	13556.373
583.244	13526.686
583.372	13603.745
583.500	13538.255
583.628	13606.706
583.756	13635.255
583.884	13640.510
584.013	13750.392
584.141	13624.020
584.269	13650.451
584.397	13738.882
584.525	13675.294
584.653	13763.510
584.781	13779.000
584.909	13763.961
585.038	13793.961
585.166	13773.843
585.294	13860.627
585.422	13834.804
585.550	13801.137
585.678	13796.078
585.806	13837.706
585.934	13763.373
586.063	13819.353
586.191	13819.765
586.319	13791.980
586.447	13800.863
586.575	13853.922
586.703	13931.059
586.831	13804.255
586.959	13904.529
587.088	13815.275
587.216	13832.804
587.344	13823.039
587.472	13970.941
587.600	13806.353
587.728	13791.431
587.856	13848.333
587.984	13824.137
588.113	13915.686
588.241	13900.235
588.369	13927.843
588.497	13929.431
588.625	13857.412
588.753	13992.784
588.881	13869.216
589.009	13837.647
589.138	13894.000
589.266	13906.314
589.394	13880.118
589.522	13914.020
589.650	14023.000
589.778	13952.000
589.906	14014.922
590.034	13973.020
590.163	13961.824
590.291	14055.490
590.419	13969.725
590.547	13997.922
590.675	14070.510
590.803	14092.059
590.931	14056.353
591.059	14046.765
591.188	14039.157
591.316	14024.314
591.444	14089.941
591.572	14135.118
591.700	14085.608
591.828	14149.824
591.956	14179.569
592.084	14179.549
592.213	14133.333
592.341	14161.275
592.469	14226.078
592.597	14208.000
592.725	14122.431
592.853	14170.529
592.981	14179.863
593.109	14186.471
593.238	14088.078
593.366	14071.980
593.494	14082.314
593.622	14125.451
593.750	14043.529
593.878	14188.431
594.006	14057.098
594.134	14049.667
594.263	14130.784
594.391	14003.941
594.519	14059.941
594.647	14036.725
594.775	13947.549
594.903	14035.922
595.031	13955.725
595.159	14023.020
595.288	14048.392
595.416	14060.529
595.544	14036.431
595.672	13918.451
595.800	14031.961
595.928	13910.510
596.056	13904.667
596.184	13823.902
596.313	13960.627
596.441	13829.451
596.569	13904.451
596.697	13841.431
596.825	13765.137
596.953	13801.275
597.081	13866.529
597.209	13841.922
597.338	13826.863
597.466	13830.039
597.594	13802.843
597.722	13944.863
597.850	13837.294
597.978	13921.490
598.106	13953.314
598.234	13935.353
598.363	13889.647
598.491	14070.902
598.619	13916.039
598.747	13898.255
598.875	14019.725
599.003	13972.902
599.131	14040.451
599.259	14023.118
599.388	14033.412
599.516	14062.157
599.644	14131.412
599.772	14239.922
599.900	14167.039
600.028	14202.157
600.156	14269.902
600.284	14197.725
600.413	14226.647
600.541	14353.843
600.669	14379.490
600.797	14346.196
600.925	14386.216
601.053	14427.157
601.181	14397.176
601.309	14322.490
601.438	14313.922
601.566	14341.706
601.694	14421.039
601.822	14599.275
601.950	14400.392
602.078	14465.627
602.206	14534.196
602.334	14520.804
602.463	14465.235
602.591	14638.510
602.719	14515.275
602.847	14765.294
602.975	14607.627
603.103	14604.961
603.231	14664.706
603.359	14638.196
603.488	14691.882
603.616	14671.627
603.744	14625.745
603.872	14677.059
604.000	14681.412
604.128	14708.196
604.256	14689.275
604.384	14749.765
604.513	14788.020
604.641	14760.588
604.769	14826.745
604.897	14727.118
605.025	14694.706
605.153	14733.412
605.281	14833.490
605.409	14703.118
605.538	14775.039
605.666	14681.216
605.794	14677.686
605.922	14740.176
606.050	14650.235
606.178	14695.431
606.306	14641.980
606.434	14768.000
606.563	14691.020
606.691	14738.451
606.819	14691.765
606.947	14686.216
607.075	14758.882
607.203	14686.647
607.331	14701.333
607.459	14661.627
607.588	14611.020
607.716	14675.059
607.844	14703.882
607.972	14700.216
608.100	14645.569
608.228	14679.216
608.356	14729.294
608.484	14649.922
608.613	14668.275
608.741	14589.216
608.869	14611.157
608.997	14675.843
609.125	14688.745
609.253	14580.941
609.381	14576.647
609.509	14524.608
609.638	14578.235
609.766	14529.216
609.894	14550.608
610.022	14513.667
610.150	14616.059
610.278	14474.059
610.406	14504.078
610.534	14531.216
610.663	14481.471
610.791	14663.059
610.919	14492.686
611.047	14534.922
611.175	14457.627
611.303	14482.392
611.431	14516.137
611.559	14540.255
611.688	14496.451
611.816	14501.000
611.944	14489.118
612.072	14507.706
612.200	14512.647
612.328	14611.020
612.456	14477.020
612.584	14632.373
612.713	14566.216
612.841	14566.529
612.969	14529.961
613.097	14523.902
613.225	14524.471
613.353	14601.647
613.481	14523.118
613.609	14576.843
613.738	14528.157
613.866	14636.490
613.994	14592.294
614.122	14584.255
614.250	14550.412
614.378	14593.235
614.506	14563.529
614.634	14618.412
614.763	14613.941
614.891	14640.667
615.019	14642.922
615.147	14756.373
615.275	14706.157
615.403	14733.529
615.531	14712.569
615.659	14756.098
615.788	14741.353
615.916	14887.902
616.044	14830.902
616.172	14998.882
616.300	14806.667
616.428	14921.647
616.556	14884.176
616.684	14855.451
616.813	14886.314
616.941	14904.471
617.069	14910.765
617.197	15121.745
617.325	14990.588
617.453	14951.667
617.581	15025.235
617.709	14933.451
617.838	14954.314
617.966	15066.137
618.094	14986.961
618.222	15005.157
618.350	15046.235
618.478	14948.686
618.606	15083.431
618.734	15043.608
618.863	15057.824
618.991	15032.412
619.119	15151.922
619.247	15056.039
619.375	15061.137
619.503	15119.569
619.631	15246.196
619.759	15060.235
619.888	15027.471
620.016	15135.098
620.144	15174.686
620.272	15065.529
620.400	15110.196
620.528	15043.569
620.656	15211.333
620.784	15099.608
620.913	15057.608
621.041	15063.255
621.169	15107.471
621.297	15098.706
621.425	15131.980
621.553	15104.235
621.681	15216.627
621.809	15192.529
621.938	15255.098
622.066	15300.980
622.194	15197.333
622.322	15208.961
622.450	15231.235
622.578	15252.902
622.706	15276.039
622.834	15282.745
622.963	15367.863
623.091	15344.157
623.219	15309.412
623.347	15447.118
623.475	15428.314
623.603	15403.529
623.731	15451.824
623.859	15472.686
623.988	15533.824
624.116	15512.961
624.244	15627.824
624.372	15591.078
624.500	15624.941
624.628	15662.549
624.756	15682.686
624.884	15798.706
625.013	15899.059
625.141	15786.490
625.269	15711.784
625.397	15887.157
625.525	15985.608
625.653	15798.118
625.781	15941.863
625.909	15835.882
626.038	15891.843
626.166	15901.961
626.294	15856.314
626.422	15917.686
626.550	15973.020
626.678	15918.706
626.806	15872.980
626.934	15991.098
627.063	15934.039
627.191	15945.745
627.319	15998.294
627.447	15983.980
627.575	16002.608
627.703	16046.118
627.831	16067.000
627.959	16055.471
628.088	16066.569
628.216	16096.961
628.344	16034.255
628.472	16030.314
628.600	16224.745
628.728	16029.039
628.856	15962.882
628.984	15917.980
629.113	16001.882
629.241	15974.020
629.369	15953.941
629.497	15945.255
629.625	15941.255
629.753	15878.255
629.881	15881.451
630.009	15860.941
630.138	15930.569
630.266	15901.078
630.394	16049.196
630.522	16032.412
630.650	15878.235
630.778	15803.020
630.906	15766.549
631.034	15681.667
631.163	15809.922
631.291	15822.686
631.419	15699.765
631.547	15624.020
631.675	15638.725
631.803	15645.392
631.931	15639.235
632.059	15774.392
632.188	15624.216
632.316	15631.608
632.444	15694.608
632.572	15616.353
632.700	15605.647
632.828	15609.529
632.956	15538.941
633.084	15536.941
633.213	15591.000
633.341	15484.314
633.469	15518.902
633.597	15560.176
633.725	15466.627
633.853	15470.569
633.981	15475.176
634.109	15677.784
634.238	15464.137
634.366	15396.510
634.494	15356.039
634.622	15338.333
634.750	15413.294
634.878	15466.039
635.006	15438.412
635.134	15377.412
635.263	15499.765
635.391	15317.529
635.519	15337.608
635.647	15421.059
635.775	15366.765
635.903	15343.431
636.031	15289.569
636.159	15251.353
636.288	15210.569
636.416	15227.118
636.544	15230.118
636.672	15243.294
636.800	15290.941
636.928	15207.804
637.056	15330.882
637.184	15247.275
637.313	15255.843
637.441	15222.451
637.569	15360.882
637.697	15376.235
637.825	15355.804
637.953	15374.118
638.081	15319.333
638.209	15512.020
638.338	15512.824
638.466	15426.078
638.594	15490.686
638.722	15535.784
638.850	15606.412
638.978	15560.333
639.106	15641.255
639.234	15579.961
639.363	15569.373
639.491	15577.941
639.619	15601.588
639.747	15650.275
639.875	15595.392
640.003	15727.196
640.131	15671.216
640.259	15686.490
640.388	15792.059
640.516	15753.157
640.644	15795.137
640.772	15947.725
640.900	15818.471
641.028	15858.118
641.156	15856.118
641.284	15838.333
641.413	16000.059
641.541	15967.118
641.669	15874.549
641.797	16024.784
641.925	15921.941
642.053	16023.216
642.181	15857.235
642.309	15921.255
642.438	15948.275
642.566	16007.353
642.694	16079.216
642.822	15919.725
642.950	15937.706
643.078	15993.392
643.206	15958.431
643.334	16050.196
643.463	16019.529
643.591	15999.490
643.719	16079.725
643.847	16048.059
643.975	16040.157
644.103	16028.667
644.231	16033.314
644.359	16088.765
644.488	16064.745
644.616	16090.608
644.744	16103.235
644.872	16120.941
645.000	16175.294
645.128	16107.824
645.256	16021.510
645.384	16120.725
645.513	16043.980
645.641	16028.255
645.769	16070.490
645.897	16133.333
646.025	16074.235
646.153	16079.686
646.281	16114.569
646.409	16022.627
646.538	16151.784
646.666	16039.078
646.794	16044.980
646.922	16046.431
647.050	16048.098
647.178	16022.549
647.306	16304.863
647.434	16032.392
647.563	15977.745
647.691	16062.510
647.819	16100.078
647.947	15960.745
648.075	15930.373
648.203	15981.686
648.331	15982.471
648.459	15950.196
648.588	15952.627
648.716	16023.314
648.844	15941.745
648.972	15995.725
649.100	15957.784
649.228	15919.137
649.356	15994.431
649.484	15900.745
649.613	15957.804
649.741	15942.725
649.869	15897.706
649.997	15898.549
650.125	15918.353
650.253	15885.902
650.381	15842.725
650.509	15754.980
650.638	15769.333
650.766	15963.373
650.894	15846.647
651.022	15741.902
651.150	15804.000
651.278	15861.627
651.406	15800.686
651.534	15825.353
651.663	15813.412
651.791	16013.059
651.919	15796.608
652.047	15806.686
652.175	15853.471
652.303	15843.843
652.431	15787.000
652.559	15871.784
652.688	15818.843
652.816	15884.020
652.944	15801.882
653.072	15802.902
653.200	15865.824
653.328	15796.039
653.456	15727.961
653.584	15865.725
653.713	15782.078
653.841	15823.922
653.969	15773.569
654.097	15831.059
654.225	15839.686
654.353	15865.314
654.481	15884.294
654.609	15927.392
654.738	15972.451
654.866	15939.431
654.994	16040.902
655.122	16010.078
655.250	16114.333
655.378	15908.922
655.506	16023.059
655.634	16063.647
655.763	15850.392
655.891	15886.529
656.019	15868.608
656.147	15853.431
656.275	15881.667
656.403	15808.255
656.531	15723.549
656.659	15741.196
656.788	15724.098
656.916	15702.549
657.044	15694.176
657.172	15693.549
657.300	15823.157
657.428	15687.824
657.556	15697.647
657.684	15579.765
657.813	15589.608
657.941	15562.216
658.069	15513.608
658.197	15468.784
658.325	15581.314
658.453	15413.843
658.581	15421.098
658.709	15359.706
658.838	15418.078
658.966	15396.471
659.094	15351.020
659.222	15317.255
659.350	15267.529
659.478	15317.373
659.606	15342.941
659.734	15247.667
659.863	15204.314
659.991	15080.882
660.119	15129.961
660.247	15267.176
660.375	15032.412
660.503	15029.137
660.631	15071.196
660.759	14991.765
660.888	14973.843
661.016	14919.216
661.144	14901.608
661.272	14955.137
661.400	14874.118
661.528	14895.902
661.656	14799.980
661.784	14774.882
661.913	14792.941
662.041	14938.333
662.169	14774.804
662.297	14973.294
662.425	14847.412
662.553	14956.353
662.681	14826.843
662.809	14881.588
662.938	14780.275
663.066	14773.333
663.194	14777.039
663.322	14829.471
663.450	14786.098
663.578	14817.196
663.706	15049.412
663.834	14816.902
663.963	14796.392
664.091	14780.118
664.219	14765.392
664.347	14866.216
664.475	14838.706
664.603	14759.157
664.731	14696.392
664.859	14704.490
664.988	14762.725
665.116	14730.294
665.244	14750.882
665.372	14747.176
665.500	14817.490
665.628	14700.098
665.756	14746.941
665.884	14741.294
666.013	14747.863
666.141	14749.725
666.269	14769.118
666.397	14742.235
666.525	14785.980
666.653	14721.529
666.781	14871.373
666.909	14756.373
667.038	14850.765
667.166	14812.333
667.294	14854.882
667.422	14802.059
667.550	14819.176
667.678	14827.725
667.806	14814.647
667.934	14798.941
668.063	14817.902
668.191	14909.176
668.319	14948.176
668.447	14856.196
668.575	14884.980
668.703	14911.588
668.831	14928.353
668.959	14927.765
669.088	15058.353
669.216	14936.510
669.344	14984.647
669.472	14963.373
669.600	15001.216
669.728	15020.059
669.856	14920.373
669.984	14936.118
670.113	14910.333
670.241	14821.078
670.369	14860.471
670.497	14809.627
670.625	14825.510
670.753	15023.373
670.881	15030.078
671.009	14839.078
671.138	14869.725
671.266	14732.020
671.394	14758.725
671.522	14801.706
671.650	14756.941
671.778	14731.549
671.906	14685.235
672.034	14700.608
672.163	14675.373
672.291	14584.961
672.419	14676.667
672.547	14617.059
672.675	14527.824
672.803	14520.706
672.931	14518.137
673.059	14395.725
673.188	14390.333
673.316	14350.745
673.444	14391.039
673.572	14486.216
673.700	14265.980
673.828	14277.353
673.956	14270.314
674.084	14207.275
674.213	14234.549
674.341	14165.569
674.469	14097.353
674.597	14070.824
674.725	14204.922
674.853	14008.804
674.981	14025.373
675.109	13952.176
675.238	13881.510
675.366	13882.686
675.494	13843.196
675.622	13942.647
675.750	13939.510
675.878	13826.353
676.006	13883.000
676.134	13778.667
676.263	13772.529
676.391	13788.353
676.519	13737.216
676.647	13657.922
676.775	13688.667
676.903	13807.157
677.031	13637.569
677.159	13691.176
677.288	13857.431
677.416	13656.765
677.544	13603.882
677.672	13574.118
677.800	13532.902
677.928	13528.961
678.056	13549.000
678.184	13499.000
678.313	13581.784
678.441	13435.137
678.569	13688.431
678.697	13462.392
678.825	13447.706
678.953	13517.431
679.081	13464.196
679.209	13441.882
679.338	13449.745
679.466	13347.725
679.594	13363.588
679.722	13319.627
679.850	13311.647
679.978	13302.529
680.106	13287.902
680.234	13272.588
680.363	13298.137
680.491	13204.412
680.619	13433.235
680.747	13312.608
680.875	13207.725
681.003	13277.392
681.131	13272.961
681.259	13192.118
681.388	13160.941
681.516	13296.686
681.644	13207.078
681.772	13384.824
681.900	13197.941
682.028	13189.725
682.156	13143.804
682.284	13200.686
682.413	13325.471
682.541	13277.765
682.669	13228.451
682.797	13349.196
682.925	13337.980
683.053	13322.000
683.181	13340.902
683.309	13336.098
683.438	13384.431
683.566	13452.902
683.694	13408.902
683.822	13407.275
683.950	13432.137
684.078	13390.941
684.206	13466.431
684.334	13469.824
684.463	13554.353
684.591	13389.961
684.719	13367.020
684.847	13380.549
684.975	13406.137
685.103	13335.549
685.231	13454.667
685.359	13364.784
685.488	13421.235
685.616	13466.373
685.744	13358.078
685.872	13423.588
686.000	13442.275
686.128	13332.961
686.256	13380.098
686.384	13464.373
686.513	13343.471
686.641	13435.078
686.769	13416.392
686.897	13403.608
687.025	13377.725
687.153	13408.490
687.281	13413.490
687.409	13425.980
687.538	13386.784
687.666	13389.549
687.794	13351.961
687.922	13380.922
688.050	13319.078
688.178	13477.882
688.306	13447.196
688.434	13347.961
688.563	13366.510
688.691	13369.824
688.819	13497.118
688.947	13378.569
689.075	13452.882
689.203	13460.118
689.331	13378.863
689.459	13364.000
689.588	13348.294
689.716	13400.078
689.844	13367.078
689.972	13339.373
690.100	13300.725
690.228	13392.941
690.356	13344.373
690.484	13466.235
690.613	13229.980
690.741	13283.451
690.869	13266.412
690.997	13290.255
691.125	13503.804
691.253	13488.569
691.381	13259.255
691.509	13213.373
691.638	13197.216
691.766	13223.706
691.894	13351.725
692.022	13320.510
692.150	13304.118
692.278	13238.235
692.406	13277.392
692.534	13281.980
692.663	13244.118
692.791	13276.118
692.919	13308.196
693.047	13242.137
693.175	13257.294
693.303	13368.765
693.431	13257.353
693.559	13289.667
693.688	13353.451
693.816	13245.255
693.944	13252.431
694.072	13213.706
694.200	13233.510
694.328	13220.824
694.456	13250.608
694.584	13166.569
694.713	13211.824
694.841	13246.843
694.969	13266.216
695.097	13420.216
695.225	13164.373
695.353	13345.255
695.481	13237.765
695.609	13283.627
695.738	13224.765
695.866	13223.549
695.994	13169.882
696.122	13408.118
696.250	13325.941
696.378	13315.804
696.506	13198.745
696.634	13224.784
696.763	13251.333
696.891	13244.255
697.019	13290.510
697.147	13343.490
697.275	13288.078
697.403	13293.078
697.531	13299.490
697.659	13257.608
697.788	13419.118
697.916	13388.843
698.044	13314.882
698.172	13368.275
698.300	13388.725
698.428	13344.941
698.556	13340.608
698.684	13423.902
698.813	13470.843
698.941	13530.275
699.069	13493.314
699.197	13449.471
699.325	13438.980
699.453	13459.000
699.581	13596.078
699.709	13469.137
699.838	13487.000
699.966	13484.784
700.094	13544.627
700.222	13644.431
700.350	13608.216
700.478	13565.588
700.606	13548.941
700.734	13562.627
700.863	13499.882
700.991	13607.020
701.119	13558.765
701.247	13596.647
701.375	13630.510
701.503	13536.569
701.631	13556.098
701.759	13599.294
701.888	13622.608
702.016	13766.137
702.144	13634.255
702.272	13641.059
702.400	13670.020
702.528	13723.137
702.656	13800.784
702.784	13692.314
702.913	13741.784
703.041	13715.725
703.169	13818.941
703.297	13713.333
703.425	13774.216
703.553	13785.020
703.681	13768.627
703.809	13761.098
703.938	13727.627
704.066	13921.529
704.194	13739.078
704.322	13770.745
704.450	13716.275
704.578	13751.373
704.706	13845.294
704.834	13810.255
704.963	13800.471
705.091	13716.235
705.219	13741.745
705.347	13749.608
705.475	13680.882
705.603	13677.353
705.731	13712.078
705.859	13696.000
705.988	13693.157
706.116	13665.588
706.244	13635.000
706.372	13747.333
706.500	13658.275
706.628	13850.941
706.756	13753.020
706.884	13676.588
707.013	13756.922
707.141	13628.961
707.269	13778.333
707.397	13620.216
707.525	13657.667
707.653	13609.196
707.781	13613.078
707.909	13582.255
708.038	13572.157
708.166	13592.745
708.294	13506.137
708.422	13518.725
708.550	13553.569
708.678	13418.098
708.806	13604.569
708.934	13463.745
709.063	13517.471
709.191	13456.412
709.319	13507.667
709.447	13547.863
709.575	13518.373
709.703	13544.667
709.831	13675.667
709.959	13596.647
710.088	13741.804
710.216	13798.118
710.344	13707.275
710.472	13794.098
710.600	13874.020
710.728	13883.333
710.856	13867.667
710.984	13987.569
711.113	13910.961
711.241	13975.824
711.369	14057.588
711.497	13950.588
711.625	14002.333
711.753	14008.235
711.881	14057.843
712.009	14222.157
712.138	14144.765
712.266	14075.706
712.394	14117.980
712.522	14058.118
712.650	14170.961
712.778	14204.078
712.906	14218.765
713.034	14241.706
713.163	14290.235
713.291	14276.118
713.419	14309.706
713.547	14249.020
713.675	14249.863
713.803	14243.294
713.931	14262.118
714.059	14344.137
714.188	14346.706
714.316	14351.255
714.444	14399.020
714.572	14503.176
714.700	14438.784
714.828	14433.765
714.956	14516.882
715.084	14450.137
715.213	14504.196
715.341	14602.078
715.469	14548.922
715.597	14740.725
715.725	14586.882
715.853	14711.353
715.981	14607.961
716.109	14707.686
716.238	14684.471
716.366	14723.863
716.494	14775.118
716.622	14769.863
716.750	14734.529
716.878	14843.745
717.006	14787.294
717.134	14752.843
717.263	14749.078
717.391	14808.157
717.519	14741.941
717.647	14793.824
717.775	14689.431
717.903	14697.314
718.031	14725.843
718.159	14731.235
718.288	14732.902
718.416	14742.490
718.544	14707.824
718.672	14727.275
718.800	14727.373
718.928	14744.235
719.056	14651.059
719.184	14753.510
719.313	14718.020
719.441	14729.765
719.569	14700.059
719.697	14801.804
719.825	14795.902
719.953	14745.922
720.081	14712.333
720.209	14751.941
720.338	14728.667
720.466	14674.373
720.594	14699.275
720.722	14788.706
720.850	14738.078
720.978	14673.451
721.106	14616.176
721.234	14602.627
721.363	14540.196
721.491	14568.667
721.619	14555.137
721.747	14497.098
721.875	14566.255
722.003	14442.843
722.131	14489.902
722.259	14479.961
722.388	14581.431
722.516	14425.333
722.644	14403.353
722.772	14363.137
722.900	14427.157
723.028	14337.078
723.156	14349.118
723.284	14406.608
723.413	14359.059
723.541	14350.608
723.669	14326.294
723.797	14275.353
723.925	14221.039
724.053	14344.333
724.181	14225.882
724.309	14315.745
724.438	14275.059
724.566	14316.275
724.694	14233.275
724.822	14204.980
724.950	14261.941
725.078	14257.824
725.206	14218.137
725.334	14261.627
725.463	14239.529
725.591	14319.020
725.719	14449.294
725.847	14235.549
725.975	14257.549
726.103	14264.373
726.231	14265.059
726.359	14187.824
726.488	14408.176
726.616	14202.569
726.744	14266.078
726.872	14282.863
727.000	14303.863
727.128	14323.471
727.256	14362.608
727.384	14388.412
727.513	14304.804
727.641	14340.510
727.769	14340.627
727.897	14385.765
728.025	14332.824
728.153	14316.569
728.281	14390.784
728.409	14327.608
728.538	14369.000
728.666	14404.745
728.794	14397.431
728.922	14415.275
729.050	14411.392
729.178	14441.039
729.306	14458.020
729.434	14487.961
729.563	14441.255
729.691	14508.627
729.819	14504.314
729.947	14554.039
730.075	14495.216
730.203	14486.569
730.331	14506.078
730.459	14480.333
730.588	14557.176
730.716	14592.941
730.844	14609.373
730.972	14614.941
731.100	14625.608
731.228	14700.882
731.356	14732.353
731.484	14752.294
731.613	14785.412
731.741	14754.745
731.869	14726.020
731.997	14774.216
732.125	14845.118
732.253	14825.824
732.381	14854.549
732.509	14908.255
732.638	14900.784
732.766	14917.882
732.894	14938.529
733.022	15029.431
733.150	15036.118
733.278	15060.902
733.406	15015.569
733.534	15045.765
733.663	15050.216
733.791	15196.647
733.919	15074.196
734.047	15109.569
734.175	15148.275
734.303	15128.569
734.431	15128.824
734.559	15178.863
734.688	15167.745
734.816	15134.961
734.944	15211.078
735.072	15274.902
735.200	15248.745
735.328	15200.725
735.456	15270.314
735.584	15240.706
735.713	15321.275
735.841	15296.137
735.969	15528.706
736.097	15355.098
736.225	15362.294
736.353	15374.137
736.481	15358.765
736.609	15445.392
736.738	15405.431
736.866	15400.176
736.994	15410.647
737.122	15427.588
737.250	15451.000
737.378	15407.255
737.506	15336.078
737.634	15425.902
737.763	15378.490
737.891	15547.549
738.019	15461.804
738.147	15617.451
738.275	15427.039
738.403	15479.294
738.531	15469.725
738.659	15490.961
738.788	15480.549
738.916	15526.275
739.044	15514.078
739.172	15448.059
739.300	15511.961
739.428	15499.314
739.556	15498.098
739.684	15417.392
739.813	15581.824
739.941	15534.745
740.069	15556.882
740.197	15483.549
740.325	15497.059
740.453	15586.745
740.581	15533.216
740.709	15434.706
740.838	15429.314
740.966	15473.039
741.094	15480.569
741.222	15446.667
741.350	15527.529
741.478	15434.255
741.606	15472.647
741.734	15408.804
741.863	15456.627
741.991	15454.294
742.119	15434.725
742.247	15628.686
742.375	15510.333
742.503	15461.706
742.631	15540.627
742.759	15464.314
742.888	15449.392
743.016	15511.118
743.144	15414.196
743.272	15421.980
743.400	15551.098
743.528	15456.392
743.656	15474.431
743.784	15601.725
743.913	15507.980
744.041	15535.745
744.169	15460.725
744.297	15660.588
744.425	15430.922
744.553	15437.843
744.681	15486.451
744.809	15418.667
744.938	15453.569
745.066	15453.882
745.194	15446.882
745.322	15469.804
745.450	15403.451
745.578	15489.098
745.706	15513.196
745.834	15388.961
745.963	15390.765
746.091	15470.392
746.219	15451.569
746.347	15419.157
746.475	15338.980
746.603	15361.059
746.731	15353.725
746.859	15393.059
746.988	15349.314
747.116	15466.961
747.244	15451.490
747.372	15392.510
747.500	15385.078
747.628	15452.922
747.756	15421.961
747.884	15537.353
748.013	15525.059
748.141	15473.941
748.269	15471.059
748.397	15546.118
748.525	15480.176
748.653	15538.608
748.781	15614.824
748.909	15500.451
749.038	15576.843
749.166	15495.961
749.294	15635.980
749.422	15561.000
749.550	15548.196
749.678	15548.961
749.806	15589.412
749.934	15588.569
750.063	15540.176
750.191	15710.098
750.319	15507.020
750.447	15565.882
750.575	15646.118
750.703	15600.765
750.831	15625.804
750.959	15628.569
751.088	15622.118
751.216	15610.333
751.344	15584.471
751.472	15654.824
751.600	15643.098
751.728	15714.725
751.856	15735.431
751.984	15606.824
752.113	15725.078
752.241	15619.804
752.369	15701.784
752.497	15874.765
752.625	15645.314
752.753	15644.255
752.881	15698.294
753.009	15639.510
753.138	15646.706
753.266	15688.255
753.394	15665.490
753.522	15728.255
753.650	15692.373
753.778	15689.059
753.906	15701.353
754.034	15674.255
754.163	15731.314
754.291	15887.569
754.419	15759.902
754.547	15706.588
754.675	15748.137
754.803	15761.412
754.931	15763.039
755.059	15819.706
755.188	15816.157
755.316	15715.667
755.444	15793.216
755.572	15704.431
755.700	15763.294
755.828	15711.765
755.956	15740.608
756.084	15754.059
756.213	15711.784
756.341	15773.059
756.469	15775.922
756.597	15793.608
756.725	15724.373
756.853	15752.843
756.981	15746.157
757.109	15761.961
757.238	15703.294
757.366	15719.824
757.494	15744.255
757.622	15742.980
757.750	15791.608
757.878	15771.510
758.006	15823.373
758.134	15729.294
758.263	15775.137
758.391	15817.667
758.519	15752.490
758.647	15795.882
758.775	15706.431
758.903	15662.196
759.031	15740.431
759.159	15731.843
759.288	15836.157
759.416	15653.608
759.544	15725.549
759.672	15764.745
759.800	15804.392
759.928	15718.902
760.056	15740.529
760.184	15697.667
760.313	15672.627
760.441	15706.490
760.569	15656.706
760.697	15675.784
760.825	15664.216
760.953	15634.412
761.081	15668.039
761.209	15613.039
761.338	15586.275
761.466	15610.922
761.594	15732.922
761.722	15777.196
761.850	15579.255
761.978	15564.176
762.106	15584.275
762.234	15566.647
762.363	15553.765
762.491	15501.196
762.619	15527.431
762.747	15549.725
762.875	15500.941
763.003	15567.510
763.131	15506.216
763.259	15495.020
763.388	15477.020
763.516	15496.765
763.644	15415.373
763.772	15420.843
763.900	15472.510
764.028	15424.667
764.156	15445.294
764.284	15434.314
764.413	15414.804
764.541	15503.627
764.669	15472.824
764.797	15524.353
764.925	15420.510
765.053	15341.118
765.181	15416.647
765.309	15402.353
765.438	15351.608
765.566	15364.941
765.694	15360.902
765.822	15487.490
765.950	15384.157
766.078	15367.392
766.206	15381.294
766.334	15403.333
766.463	15315.000
766.591	15355.863
766.719	15366.765
766.847	15405.804
766.975	15348.196
767.103	15350.843
767.231	15383.804
767.359	15335.765
767.488	15312.118
767.616	15284.373
767.744	15331.059
767.872	15321.824
768.000	15257.118
768.128	15334.490
768.256	15322.588
768.384	15308.706
768.513	15283.922
768.641	15383.882
768.769	15430.157
768.897	15393.902
769.025	15431.843
769.153	15301.784
769.281	15354.725
769.409	15318.667
769.538	15302.412
769.666	15333.078
769.794	15362.431
769.922	15414.647
770.050	15354.118
770.178	15310.608
770.306	15356.255
770.434	15265.667
770.563	15357.294
770.691	15342.706
770.819	15259.569
770.947	15309.569
771.075	15248.725
771.203	15233.000
771.331	15397.667
771.459	15299.980
771.588	15263.529
771.716	15238.412
771.844	15259.353
771.972	15338.275
772.100	15220.314
772.228	15221.176
772.356	15262.980
772.484	15115.510
772.613	15230.216
772.741	15203.686
772.869	15311.725
772.997	15233.667
773.125	15339.686
773.253	15302.176
773.381	15168.471
773.509	15221.608
773.638	15169.118
773.766	15186.431
773.894	15195.020
774.022	15173.804
774.150	15130.059
774.278	15201.196
774.406	15162.020
774.534	15248.039
774.663	15239.824
774.791	15173.549
774.919	15215.353
775.047	15218.176
775.175	15206.275
775.303	15245.314
775.431	15155.627
775.559	15137.000
775.688	15144.902
775.816	15227.176
775.944	15175.843
776.072	15262.647
776.200	15183.941
776.328	15241.980
776.456	15174.745
776.584	15198.961
776.713	15246.647
776.841	15183.510
776.969	15235.706
777.097	15192.373
777.225	15300.706
777.353	15312.608
777.481	15303.961
777.609	15305.745
777.738	15203.412
777.866	15278.529
777.994	15234.843
778.122	15342.549
778.250	15379.647
778.378	15348.549
778.506	15335.667
778.634	15301.569
778.763	15427.275
778.891	15340.725
779.019	15356.627
779.147	15379.294
779.275	15413.255
779.403	15409.902
779.531	15363.235
779.659	15359.431
779.788	15362.020
779.916	15326.490
780.044	15322.412
780.172	15373.294
780.300	15294.510
780.428	15399.980
780.556	15433.745
780.684	15334.471
780.813	15356.667
780.941	15313.314
781.069	15326.529
781.197	15406.353
781.325	15473.157
781.453	15327.157
781.581	15368.000
781.709	15299.451
781.838	15338.725
781.966	15243.765
782.094	15268.176
782.222	15417.922
782.350	15263.451
782.478	15381.725
782.606	15302.843
782.734	15361.314
782.863	15297.314
782.991	15296.137
783.119	15312.353
783.247	15245.725
783.375	15279.608
783.503	15281.725
783.631	15314.314
783.759	15162.902
783.888	15298.647
784.016	15209.843
784.144	15212.647
784.272	15166.039
784.400	15279.902
784.528	15242.255
784.656	15294.314
784.784	15222.039
784.913	15189.275
785.041	15202.255
785.169	15157.745
785.297	15169.275
785.425	15101.588
785.553	15120.863
785.681	15105.373
785.809	15232.412
785.938	15092.686
786.066	15176.784
786.194	15095.039
786.322	15068.216
786.450	15072.078
786.578	15055.255
786.706	15138.980
786.834	15088.922
786.963	15122.118
787.091	15037.941
787.219	15011.216
787.347	14972.020
787.475	15041.667
787.603	15013.137
787.731	14971.588
787.859	14973.412
787.988	15068.078
788.116	15049.314
788.244	15057.098
788.372	14894.706
788.500	14950.804
788.628	14965.471
788.756	14896.980
788.884	14978.392
789.013	14876.078
789.141	14877.078
789.269	14884.235
789.397	14841.294
789.525	14946.980
789.653	14909.451
789.781	14812.608
789.909	14800.510
790.038	14856.216
790.166	14755.098
790.294	14699.902
790.422	14648.804
790.550	14701.588
790.678	14651.941
790.806	14603.353
790.934	14646.196
791.063	14660.373
791.191	14662.647
791.319	14547.941
791.447	14607.569
791.575	14539.176
791.703	14593.882
791.831	14594.588
791.959	14583.882
792.088	14598.098
792.216	14534.098
792.344	14531.902
792.472	14446.451
792.600	14556.000
792.728	14453.392
792.856	14546.039
792.984	14426.510
793.113	14447.902
793.241	14400.431
793.369	14431.176
793.497	14446.824
793.625	14429.882
793.753	14444.431
793.881	14331.314
794.009	14341.569
794.138	14298.353
794.266	14351.118
794.394	14297.549
794.522	14358.039
794.650	14276.706
794.778	14346.863
794.906	14293.588
795.034	14342.020
795.163	14258.451
795.291	14273.078
795.419	14433.373
795.547	14199.059
795.675	14227.059
795.803	14249.392
795.931	14163.863
796.059	14106.157
796.188	14187.980
796.316	14147.725
796.444	14193.255
796.572	14168.804
796.700	14202.941
796.828	14147.353
796.956	14144.020
797.084	14049.824
797.213	14048.392
797.341	14006.608
797.469	14017.588
797.597	14013.353
797.725	13977.647
797.853	13981.647
797.981	13926.961
798.109	13975.569
798.238	13903.510
798.366	13974.078
798.494	13854.529
798.622	13905.961
798.750	13913.510
798.878	13909.137
799.006	13833.392
799.134	13810.333
799.263	13764.647
799.391	13733.098
799.519	13725.608
799.647	13740.216
799.775	13709.882
799.903	13668.980
800.031	13648.608
800.159	13614.765
800.288	13602.392
800.416	13573.510
800.544	13561.725
800.672	13483.725
800.800	13534.510
800.928	13408.941
801.056	13488.176
801.184	13478.314
801.313	13481.922
801.441	13342.529
801.569	13378.980
801.697	13418.980
801.825	13355.667
801.953	13399.765
802.081	13405.255
802.209	13279.824
802.338	13336.000
802.466	13261.314
802.594	13280.098
802.722	13217.471
802.850	13164.255
802.978	13220.804
803.106	13169.922
803.234	13193.078
803.363	13089.627
803.491	13110.686
803.619	13087.745
803.747	13113.667
803.875	13032.941
804.003	13050.373
804.131	13083.588
804.259	12979.980
804.388	12991.745
804.516	12989.647
804.644	12985.647
804.772	12986.490
804.900	12997.118
805.028	12935.412
805.156	12898.706
805.284	12950.706
805.413	12919.765
805.541	12951.784
805.669	12900.804
805.797	12865.765
805.925	12816.451
806.053	12759.647
806.181	12878.843
806.309	12815.235
806.438	12754.569
806.566	12814.863
806.694	12757.353
806.822	12682.902
806.950	12690.627
807.078	12663.020
807.206	12673.922
807.334	12625.333
807.463	12608.353
807.591	12590.784
807.719	12646.804
807.847	12607.784
807.975	12574.157
808.103	12532.118
808.231	12553.118
808.359	12515.451
808.488	12450.059
808.616	12449.627
808.744	12406.941
808.872	12421.235
809.000	12382.569
809.128	12446.922
809.256	12338.078
809.384	12285.020
809.513	12226.333
809.641	12256.235
809.769	12231.078
809.897	12243.176
810.025	12277.314
810.153	12288.922
810.281	12337.333
810.409	12276.765
810.538	12232.157
810.666	12230.784
810.794	12206.333
810.922	12205.157
811.050	12239.333
811.178	12211.000
811.306	12193.588
811.434	12225.000
811.563	12154.490
811.691	12157.235
811.819	12133.196
811.947	12084.216
812.075	12020.647
812.203	12109.118
812.331	12014.627
812.459	11997.961
812.588	11986.804
812.716	11940.000
812.844	11905.588
812.972	11832.451
813.100	11841.000
813.228	11843.686
813.356	11855.078
813.484	11927.843
813.613	11914.882
813.741	11906.941
813.869	11351.137
