spectrometer_90_50nm_hybrid_at_650.00nm_cut_at_1184.50Y_01.dat
02.05.2022
11:51:33
cut middle at Y: 1184.50
top cursor: 1210 down cursor: 1159 mean of: 51 lines , 2560 datapoints
wavelength(nm)	intensity[arb. units]
485.997	5942.314
486.125	5411.314
486.253	5273.392
486.381	5290.804
486.510	5336.843
486.638	5396.941
486.766	5428.784
486.894	5425.843
487.022	5468.392
487.150	5472.255
487.278	5480.275
487.406	5511.020
487.535	5525.294
487.663	5578.686
487.791	5580.588
487.919	5584.196
488.047	5591.863
488.175	5649.098
488.303	5654.765
488.431	5676.686
488.560	5680.235
488.688	5716.255
488.816	5734.647
488.944	5759.216
489.072	5768.627
489.200	5794.765
489.328	5840.412
489.456	5864.078
489.585	5840.471
489.713	5878.706
489.841	5839.020
489.969	5852.490
490.097	5855.451
490.225	5874.118
490.353	5926.098
490.481	5901.431
490.610	5882.078
490.738	5887.294
490.866	5950.922
490.994	5855.314
491.122	5935.216
491.250	5904.627
491.378	5956.843
491.506	6023.176
491.635	5959.804
491.763	5976.431
491.891	5953.255
492.019	6005.490
492.147	5977.157
492.275	5975.471
492.403	5930.353
492.531	6104.765
492.660	6043.176
492.788	6057.529
492.916	6102.902
493.044	6010.020
493.172	6075.235
493.300	6046.196
493.428	6091.275
493.556	6128.392
493.685	6142.824
493.813	6192.961
493.941	6207.196
494.069	6227.275
494.197	6201.314
494.325	6261.627
494.453	6403.176
494.581	6336.922
494.710	6385.216
494.838	6412.314
494.966	6466.294
495.094	6447.588
495.222	6516.765
495.350	6500.549
495.478	6532.725
495.606	6576.863
495.735	6585.745
495.863	6622.059
495.991	6649.843
496.119	6670.804
496.247	6733.078
496.375	6665.392
496.503	6686.255
496.631	6693.529
496.760	6687.000
496.888	6671.451
497.016	6710.706
497.144	6719.765
497.272	6677.255
497.400	6706.412
497.528	6680.078
497.656	6678.314
497.785	6697.882
497.913	6710.667
498.041	6723.902
498.169	6688.706
498.297	6675.176
498.425	6792.843
498.553	6666.941
498.681	6679.745
498.810	6774.039
498.938	6697.922
499.066	6688.176
499.194	6756.961
499.322	6744.392
499.450	6745.039
499.578	6742.647
499.706	6750.000
499.835	6758.353
499.963	6762.588
500.091	6800.216
500.219	6796.725
500.347	6800.471
500.475	6806.098
500.603	6834.725
500.731	6845.843
500.860	6866.471
500.988	6899.843
501.116	6886.020
501.244	6969.039
501.372	6960.490
501.500	7000.627
501.628	7015.353
501.756	7024.804
501.885	7101.902
502.013	7047.686
502.141	7096.549
502.269	7120.824
502.397	7233.157
502.525	7151.569
502.653	7258.137
502.781	7251.588
502.910	7235.922
503.038	7267.627
503.166	7279.255
503.294	7284.980
503.422	7313.451
503.550	7306.020
503.678	7332.647
503.806	7296.235
503.935	7323.255
504.063	7350.882
504.191	7353.373
504.319	7348.608
504.447	7337.745
504.575	7360.412
504.703	7354.745
504.831	7342.961
504.960	7302.020
505.088	7322.078
505.216	7394.490
505.344	7471.569
505.472	7386.176
505.600	7343.000
505.728	7455.157
505.856	7405.078
505.985	7414.157
506.113	7434.118
506.241	7417.745
506.369	7444.353
506.497	7442.000
506.625	7512.275
506.753	7484.549
506.881	7565.196
507.010	7499.804
507.138	7508.510
507.266	7607.294
507.394	7591.627
507.522	7640.725
507.650	7614.765
507.778	7641.490
507.906	7662.549
508.035	7678.294
508.163	7709.392
508.291	7711.118
508.419	7836.980
508.547	7808.118
508.675	7862.569
508.803	7759.569
508.931	7847.529
509.060	7861.745
509.188	7852.157
509.316	7849.706
509.444	7861.510
509.572	8055.804
509.700	7912.843
509.828	7948.980
509.956	7967.882
510.085	7922.471
510.213	7949.961
510.341	7944.000
510.469	7972.176
510.597	8021.804
510.725	7980.510
510.853	8060.588
510.981	8078.294
511.110	8057.000
511.238	8039.333
511.366	8086.039
511.494	8061.373
511.622	8063.451
511.750	8087.510
511.878	8101.314
512.006	8067.314
512.135	8116.235
512.263	8165.549
512.391	8125.725
512.519	8145.176
512.647	8119.902
512.775	8168.392
512.903	8173.078
513.031	8163.431
513.160	8154.588
513.288	8217.392
513.416	8186.961
513.544	8174.510
513.672	8218.275
513.800	8199.333
513.928	8178.824
514.056	8253.961
514.185	8233.627
514.313	8176.510
514.441	8263.529
514.569	8183.922
514.697	8194.569
514.825	8160.020
514.953	8184.902
515.081	8125.471
515.210	8137.157
515.338	8224.333
515.466	8118.706
515.594	8179.549
515.722	8117.706
515.850	8168.392
515.978	8096.078
516.106	8158.020
516.235	8136.843
516.363	8162.941
516.491	8147.549
516.619	8166.412
516.747	8242.686
516.875	8205.157
517.003	8146.490
517.131	8232.078
517.260	8183.412
517.388	8224.510
517.516	8204.137
517.644	8251.471
517.772	8345.314
517.900	8275.333
518.028	8327.824
518.156	8351.569
518.284	8318.608
518.413	8359.765
518.541	8403.000
518.669	8385.294
518.797	8471.020
518.925	8441.098
519.053	8507.392
519.181	8505.863
519.309	8505.431
519.438	8539.137
519.566	8578.569
519.694	8579.863
519.822	8645.020
519.950	8658.706
520.078	8685.569
520.206	8728.392
520.334	8761.137
520.463	8713.118
520.591	8762.314
520.719	8790.902
520.847	8771.275
520.975	8778.510
521.103	8852.627
521.231	8778.569
521.359	8938.608
521.488	8808.373
521.616	8873.353
521.744	8752.941
521.872	8864.235
522.000	8755.961
522.128	8770.373
522.256	8731.980
522.384	8696.216
522.513	8715.490
522.641	8705.118
522.769	8766.333
522.897	8800.706
523.025	8718.686
523.153	8661.863
523.281	8737.804
523.409	8628.412
523.538	8687.882
523.666	8616.235
523.794	8642.902
523.922	8613.000
524.050	8638.294
524.178	8650.275
524.306	8640.922
524.434	8653.784
524.563	8721.020
524.691	8795.549
524.819	8688.392
524.947	8681.137
525.075	8708.882
525.203	8691.098
525.331	8788.549
525.459	8807.412
525.588	8774.824
525.716	8871.000
525.844	8871.118
525.972	8918.529
526.100	8909.608
526.228	8970.431
526.356	8960.745
526.484	9070.961
526.613	9047.627
526.741	9105.922
526.869	9107.627
526.997	9195.020
527.125	9196.235
527.253	9156.000
527.381	9275.235
527.509	9264.451
527.638	9314.824
527.766	9373.412
527.894	9403.882
528.022	9452.020
528.150	9434.392
528.278	9476.941
528.406	9520.000
528.534	9472.255
528.663	9476.961
528.791	9596.157
528.919	9552.941
529.047	9690.294
529.175	9533.020
529.303	9577.627
529.431	9585.627
529.559	9615.078
529.688	9581.804
529.816	9552.392
529.944	9677.824
530.072	9614.745
530.200	9649.275
530.328	9667.118
530.456	9663.137
530.584	9676.863
530.713	9646.137
530.841	9686.824
530.969	9668.039
531.097	9657.863
531.225	9642.765
531.353	9751.569
531.481	9747.451
531.609	9811.627
531.738	9655.196
531.866	9779.059
531.994	9759.039
532.122	9844.373
532.250	9701.941
532.378	9705.765
532.506	9642.255
532.634	9666.529
532.763	9645.667
532.891	9667.824
533.019	9650.471
533.147	9593.529
533.275	9599.157
533.403	9657.745
533.531	9635.980
533.659	9653.020
533.788	9672.098
533.916	9617.725
534.044	9684.353
534.172	9651.608
534.300	9669.980
534.428	9642.471
534.556	9861.216
534.684	9707.490
534.813	9701.471
534.941	9672.549
535.069	9683.941
535.197	9646.196
535.325	9624.667
535.453	9628.490
535.581	9744.118
535.709	9607.510
535.838	9640.118
535.966	9696.451
536.094	9724.510
536.222	9646.235
536.350	9658.157
536.478	9680.941
536.606	9761.804
536.734	9680.314
536.863	9739.490
536.991	9771.961
537.119	9815.686
537.247	9786.000
537.375	9922.706
537.503	9810.314
537.631	9807.314
537.759	9759.176
537.888	9742.275
538.016	9944.784
538.144	9908.275
538.272	9797.980
538.400	9868.706
538.528	9803.392
538.656	9841.333
538.784	9869.961
538.913	9927.059
539.041	9927.647
539.169	9920.157
539.297	9905.314
539.425	10022.078
539.553	10005.686
539.681	10090.588
539.809	10106.059
539.938	10075.863
540.066	10131.314
540.194	10158.804
540.322	10279.784
540.450	10223.157
540.578	10185.412
540.706	10231.510
540.834	10245.824
540.963	10421.235
541.091	10268.392
541.219	10266.647
541.347	10414.196
541.475	10368.471
541.603	10402.765
541.731	10401.137
541.859	10407.196
541.988	10395.608
542.116	10604.863
542.244	10489.804
542.372	10642.588
542.500	10482.588
542.628	10595.961
542.756	10508.745
542.884	10527.431
543.013	10547.627
543.141	10603.176
543.269	10554.020
543.397	10478.961
543.525	10541.902
543.653	10607.569
543.781	10514.255
543.909	10512.078
544.038	10596.078
544.166	10618.196
544.294	10646.216
544.422	10490.176
544.550	10536.373
544.678	10563.275
544.806	10452.863
544.934	10472.980
545.063	10510.000
545.191	10615.941
545.319	10523.843
545.447	10433.451
545.575	10434.098
545.703	10508.784
545.831	10505.412
545.959	10437.059
546.088	10424.745
546.216	10391.039
546.344	10453.882
546.472	10589.588
546.600	10432.784
546.728	10421.510
546.856	10447.314
546.984	10478.000
547.113	10529.412
547.241	10502.471
547.369	10576.843
547.497	10527.667
547.625	10550.529
547.753	10536.333
547.881	10471.588
548.009	10477.608
548.138	10482.569
548.266	10438.235
548.394	10495.275
548.522	10342.451
548.650	10474.059
548.778	10390.294
548.906	10377.549
549.034	10416.961
549.163	10291.980
549.291	10311.902
549.419	10359.196
549.547	10531.863
549.675	10482.294
549.803	10528.843
549.931	10558.961
550.059	10616.882
550.188	10717.627
550.316	10729.706
550.444	10869.784
550.572	10853.373
550.700	10916.314
550.828	10975.157
550.956	11038.961
551.084	11108.235
551.213	11035.294
551.341	11122.706
551.469	11079.314
551.597	11174.176
551.725	11220.706
551.853	11238.745
551.981	11275.196
552.109	11238.588
552.238	11275.725
552.366	11217.667
552.494	11263.549
552.622	11224.765
552.750	11255.333
552.878	11288.039
553.006	11370.373
553.134	11314.569
553.263	11308.843
553.391	11347.333
553.519	11439.451
553.647	11336.824
553.775	11339.471
553.903	11461.098
554.031	11415.000
554.159	11373.431
554.288	11450.922
554.416	11450.647
554.544	11475.373
554.672	11432.529
554.800	11430.961
554.928	11388.353
555.056	11414.039
555.184	11434.529
555.313	11407.039
555.441	11399.176
555.569	11459.412
555.697	11446.608
555.825	11423.490
555.953	11438.451
556.081	11384.098
556.209	11469.627
556.338	11482.020
556.466	11616.686
556.594	11415.961
556.722	11529.882
556.850	11593.490
556.978	11446.039
557.106	11525.176
557.234	11542.333
557.363	11543.725
557.491	11543.902
557.619	11566.333
557.747	11602.020
557.875	11564.961
558.003	11631.216
558.131	11573.686
558.259	11664.275
558.388	11615.471
558.516	11666.510
558.644	11648.804
558.772	11723.157
558.900	11734.863
559.028	11688.333
559.156	11710.843
559.284	11725.059
559.413	11728.333
559.541	11728.706
559.669	11798.000
559.797	11836.843
559.925	11783.431
560.053	11887.804
560.181	11815.137
560.309	11884.392
560.438	11868.961
560.566	11881.922
560.694	11851.451
560.822	12031.882
560.950	11857.431
561.078	11920.647
561.206	12037.157
561.334	11860.020
561.463	11883.392
561.591	12045.137
561.719	11931.118
561.847	11979.627
561.975	11976.588
562.103	11985.098
562.231	11977.667
562.359	11878.647
562.488	11988.216
562.616	11971.843
562.744	11987.059
562.872	11995.235
563.000	11918.333
563.128	11939.549
563.256	11912.373
563.384	12065.039
563.513	11938.275
563.641	11951.922
563.769	12002.725
563.897	11922.529
564.025	11933.824
564.153	11934.078
564.281	12051.647
564.409	11973.588
564.538	11947.510
564.666	12001.549
564.794	12041.922
564.922	12026.196
565.050	12081.706
565.178	12063.961
565.306	12134.392
565.434	12134.235
565.563	12257.059
565.691	12177.333
565.819	12391.431
565.947	12203.784
566.075	12231.294
566.203	12258.137
566.331	12264.373
566.459	13114.451
566.588	12367.275
566.716	12389.392
566.844	12371.333
566.972	12480.490
567.100	12497.373
567.228	12587.686
567.356	12623.451
567.484	12562.569
567.613	12674.529
567.741	12741.039
567.869	12697.745
567.997	12738.059
568.125	12809.431
568.253	12913.824
568.381	12867.294
568.509	12921.000
568.638	12957.314
568.766	12923.961
568.894	13001.000
569.022	12942.216
569.150	13109.549
569.278	13034.745
569.406	13149.294
569.534	13163.667
569.663	13103.451
569.791	13094.255
569.919	13163.686
570.047	13317.529
570.175	13143.294
570.303	13239.824
570.431	13210.196
570.559	13321.667
570.688	13415.157
570.816	13273.980
570.944	13324.078
571.072	13258.608
571.200	13202.078
571.328	13299.647
571.456	13328.961
571.584	13302.843
571.713	13284.706
571.841	13407.157
571.969	13483.824
572.097	13430.353
572.225	13269.235
572.353	13251.980
572.481	13202.902
572.609	13249.510
572.738	13300.451
572.866	13253.216
572.994	13219.431
573.122	13248.490
573.250	13252.431
573.378	13172.980
573.506	13174.275
573.634	13189.059
573.763	13155.804
573.891	13142.020
574.019	13105.431
574.147	13032.510
574.275	13089.216
574.403	13113.216
574.531	13086.765
574.659	13032.157
574.788	12985.157
574.916	13163.647
575.044	12980.725
575.172	12955.235
575.300	12947.667
575.428	12920.627
575.556	12925.980
575.684	12870.294
575.813	12894.588
575.941	12925.765
576.069	12852.490
576.197	12908.961
576.325	12803.275
576.453	12811.608
576.581	12797.196
576.709	12782.000
576.838	12757.235
576.966	12878.412
577.094	12926.784
577.222	12853.804
577.350	12713.118
577.478	12913.490
577.606	12884.275
577.734	12855.941
577.863	12905.961
577.991	12960.510
578.119	13017.176
578.247	12993.941
578.375	13052.078
578.503	13014.902
578.631	13004.157
578.759	13055.569
578.888	13284.039
579.016	13059.333
579.144	13091.412
579.272	13121.275
579.400	13158.078
579.528	13223.725
579.656	13261.863
579.784	13177.686
579.913	13248.510
580.041	13455.627
580.169	13355.176
580.297	13366.059
580.425	13419.000
580.553	13470.059
580.681	13446.706
580.809	13459.804
580.938	13512.353
581.066	13582.843
581.194	13500.039
581.322	13525.627
581.450	13637.118
581.578	13554.569
581.706	13568.471
581.834	13652.725
581.963	13624.392
582.091	13681.020
582.219	13713.451
582.347	13779.431
582.475	13758.706
582.603	13775.157
582.731	13910.961
582.859	13788.314
582.988	13808.216
583.116	13841.275
583.244	13850.608
583.372	13862.392
583.500	13868.157
583.628	13959.667
583.756	13924.314
583.884	13935.176
584.013	13986.725
584.141	13962.745
584.269	14028.039
584.397	14086.314
584.525	14090.863
584.653	14101.157
584.781	14141.863
584.909	14082.765
585.038	14173.431
585.166	14121.255
585.294	14238.941
585.422	14189.020
585.550	14165.882
585.678	14154.412
585.806	14182.765
585.934	14188.804
586.063	14187.686
586.191	14156.059
586.319	14192.765
586.447	14163.196
586.575	14205.255
586.703	14281.098
586.831	14278.804
586.959	14251.941
587.088	14206.000
587.216	14206.588
587.344	14223.549
587.472	14304.745
587.600	14221.373
587.728	14189.706
587.856	14173.686
587.984	14204.765
588.113	14210.294
588.241	14223.118
588.369	14312.765
588.497	14272.922
588.625	14250.000
588.753	14398.922
588.881	14272.549
589.009	14264.608
589.138	14263.294
589.266	14297.471
589.394	14327.157
589.522	14326.000
589.650	14415.412
589.778	14422.824
589.906	14445.922
590.034	14374.980
590.163	14373.451
590.291	14496.333
590.419	14425.431
590.547	14488.098
590.675	14457.706
590.803	14489.196
590.931	14509.529
591.059	14546.745
591.188	14509.902
591.316	14507.157
591.444	14564.059
591.572	14611.255
591.700	14546.137
591.828	14504.196
591.956	14537.745
592.084	14619.176
592.213	14605.078
592.341	14626.196
592.469	14606.588
592.597	14595.059
592.725	14574.647
592.853	14628.196
592.981	14605.137
593.109	14627.137
593.238	14534.392
593.366	14572.137
593.494	14553.176
593.622	14538.196
593.750	14520.196
593.878	14612.039
594.006	14504.725
594.134	14538.412
594.263	14599.098
594.391	14481.392
594.519	14556.804
594.647	14542.000
594.775	14526.353
594.903	14531.549
595.031	14576.098
595.159	14585.255
595.288	14541.706
595.416	14579.980
595.544	14603.824
595.672	14454.176
595.800	14612.000
595.928	14410.922
596.056	14456.725
596.184	14343.412
596.313	14566.627
596.441	14375.216
596.569	14436.078
596.697	14378.941
596.825	14316.745
596.953	14360.627
597.081	14385.941
597.209	14395.941
597.338	14352.216
597.466	14373.098
597.594	14367.294
597.722	14577.549
597.850	14452.608
597.978	14521.255
598.106	14519.647
598.234	14531.451
598.363	14406.745
598.491	14591.118
598.619	14470.667
598.747	14506.255
598.875	14624.608
599.003	14600.216
599.131	14677.843
599.259	14681.510
599.388	14597.941
599.516	14712.686
599.644	14792.098
599.772	14847.745
599.900	14806.706
600.028	14746.255
600.156	14865.765
600.284	14820.373
600.413	14926.059
600.541	15007.706
600.669	15007.608
600.797	14933.294
600.925	15071.706
601.053	15085.314
601.181	15081.647
601.309	15033.314
601.438	14960.961
601.566	15051.863
601.694	15114.275
601.822	15272.510
601.950	15122.137
602.078	15172.882
602.206	15254.961
602.334	15217.020
602.463	15228.843
602.591	15375.451
602.719	15288.353
602.847	15492.863
602.975	15295.216
603.103	15332.098
603.231	15383.333
603.359	15374.765
603.488	15451.961
603.616	15381.078
603.744	15436.647
603.872	15438.686
604.000	15467.510
604.128	15458.843
604.256	15472.039
604.384	15481.725
604.513	15515.196
604.641	15544.745
604.769	15584.275
604.897	15465.824
605.025	15408.667
605.153	15505.627
605.281	15576.882
605.409	15447.118
605.538	15486.882
605.666	15526.608
605.794	15505.627
605.922	15558.667
606.050	15500.784
606.178	15548.627
606.306	15494.980
606.434	15585.647
606.563	15554.549
606.691	15588.216
606.819	15552.647
606.947	15520.863
607.075	15554.706
607.203	15552.078
607.331	15551.431
607.459	15498.059
607.588	15524.333
607.716	15527.549
607.844	15594.529
607.972	15674.510
608.100	15528.941
608.228	15533.255
608.356	15562.549
608.484	15544.941
608.613	15525.784
608.741	15520.431
608.869	15561.039
608.997	15609.510
609.125	15596.608
609.253	15524.157
609.381	15485.275
609.509	15412.824
609.638	15470.686
609.766	15509.765
609.894	15485.137
610.022	15463.510
610.150	15561.333
610.278	15429.843
610.406	15471.902
610.534	15477.235
610.663	15442.882
610.791	15540.902
610.919	15430.941
611.047	15493.392
611.175	15466.373
611.303	15512.196
611.431	15483.196
611.559	15557.118
611.688	15533.157
611.816	15480.098
611.944	15448.784
612.072	15507.588
612.200	15575.157
612.328	15578.353
612.456	15513.941
612.584	15729.490
612.713	15557.804
612.841	15648.706
612.969	15600.902
613.097	15593.451
613.225	15625.157
613.353	15613.353
613.481	15547.294
613.609	15536.784
613.738	15620.667
613.866	15654.608
613.994	15711.392
614.122	15681.471
614.250	15722.569
614.378	15681.353
614.506	15676.725
614.634	15776.451
614.763	15718.529
614.891	15777.059
615.019	15738.941
615.147	15874.157
615.275	15830.275
615.403	15885.196
615.531	15867.059
615.659	15932.431
615.788	15900.294
615.916	16075.451
616.044	15975.725
616.172	16166.588
616.300	15975.647
616.428	16144.765
616.556	16036.392
616.684	16099.588
616.813	16122.569
616.941	16112.373
617.069	16072.020
617.197	16296.784
617.325	16230.549
617.453	16260.392
617.581	16296.843
617.709	16221.255
617.838	16217.725
617.966	16230.588
618.094	16266.843
618.222	16333.647
618.350	16378.176
618.478	16223.137
618.606	16384.412
618.734	16306.863
618.863	16402.275
618.991	16327.549
619.119	16431.471
619.247	16337.137
619.375	16397.471
619.503	16443.392
619.631	16544.059
619.759	16357.059
619.888	16431.059
620.016	16425.020
620.144	16466.569
620.272	16337.137
620.400	16482.451
620.528	16450.882
620.656	16541.078
620.784	16458.157
620.913	16471.647
621.041	16447.843
621.169	16478.059
621.297	16480.902
621.425	16517.529
621.553	16552.627
621.681	16630.706
621.809	16654.824
621.938	16650.863
622.066	16713.765
622.194	16702.588
622.322	16666.824
622.450	16708.843
622.578	16711.529
622.706	16741.627
622.834	16775.902
622.963	16755.725
623.091	16798.431
623.219	16870.529
623.347	16898.588
623.475	16892.882
623.603	16906.157
623.731	16933.686
623.859	16989.843
623.988	17083.216
624.116	17068.843
624.244	17132.392
624.372	17181.431
624.500	17190.902
624.628	17215.961
624.756	17289.647
624.884	17339.765
625.013	17519.137
625.141	17386.608
625.269	17393.980
625.397	17478.020
625.525	17557.804
625.653	17407.647
625.781	17599.176
625.909	17440.725
626.038	17498.353
626.166	17551.745
626.294	17532.451
626.422	17571.686
626.550	17580.647
626.678	17621.157
626.806	17624.020
626.934	17607.549
627.063	17581.020
627.191	17625.333
627.319	17661.510
627.447	17657.863
627.575	17700.902
627.703	17726.608
627.831	17819.020
627.959	17763.255
628.088	17826.078
628.216	17909.804
628.344	17747.588
628.472	17766.373
628.600	17936.431
628.728	17791.039
628.856	17742.412
628.984	17700.765
629.113	17719.765
629.241	17699.882
629.369	17652.059
629.497	17679.686
629.625	17691.157
629.753	17606.863
629.881	17616.941
630.009	17591.922
630.138	17619.510
630.266	17609.922
630.394	17816.235
630.522	17767.314
630.650	17560.176
630.778	17492.490
630.906	17537.745
631.034	17443.686
631.163	17549.765
631.291	17507.941
631.419	17480.882
631.547	17426.353
631.675	17416.451
631.803	17349.569
631.931	17470.745
632.059	17587.529
632.188	17392.529
632.316	17351.765
632.444	17422.118
632.572	17396.529
632.700	17356.725
632.828	17352.784
632.956	17317.235
633.084	17284.078
633.213	17299.353
633.341	17279.294
633.469	17297.549
633.597	17255.588
633.725	17227.059
633.853	17270.451
633.981	17189.706
634.109	17399.980
634.238	17194.451
634.366	17180.451
634.494	17223.490
634.622	17157.882
634.750	17157.980
634.878	17233.569
635.006	17218.392
635.134	17168.392
635.263	17305.196
635.391	17123.647
635.519	17150.098
635.647	17173.569
635.775	17172.490
635.903	17227.980
636.031	17087.529
636.159	17109.647
636.288	17051.765
636.416	16996.333
636.544	16979.843
636.672	17009.020
636.800	17058.647
636.928	16996.490
637.056	17076.118
637.184	17016.588
637.313	16990.412
637.441	17088.353
637.569	17228.373
637.697	17169.137
637.825	17191.804
637.953	17234.314
638.081	17192.157
638.209	17277.941
638.338	17299.745
638.466	17306.706
638.594	17277.373
638.722	17361.980
638.850	17397.431
638.978	17353.176
639.106	17327.392
639.234	17361.902
639.363	17399.667
639.491	17389.255
639.619	17537.275
639.747	17507.078
639.875	17480.275
640.003	17527.235
640.131	17522.824
640.259	17511.412
640.388	17656.098
640.516	17661.588
640.644	17657.196
640.772	17744.000
640.900	17706.000
641.028	17737.980
641.156	17724.314
641.284	17714.961
641.413	17847.980
641.541	17822.902
641.669	17774.216
641.797	17826.176
641.925	17735.824
642.053	17914.784
642.181	17795.784
642.309	17761.725
642.438	17810.863
642.566	17761.314
642.694	17964.118
642.822	17854.882
642.950	17825.392
643.078	17884.647
643.206	17876.549
643.334	17898.510
643.463	17924.176
643.591	17913.431
643.719	17943.000
643.847	18001.294
643.975	17948.196
644.103	17960.314
644.231	17981.824
644.359	17924.686
644.488	17987.843
644.616	17992.902
644.744	18050.275
644.872	17929.608
645.000	18046.196
645.128	17976.765
645.256	17939.745
645.384	18046.118
645.513	17954.392
645.641	17951.039
645.769	17997.471
645.897	18044.353
646.025	18025.922
646.153	17968.157
646.281	17985.412
646.409	17968.000
646.538	18076.706
646.666	17928.000
646.794	17938.686
646.922	17903.588
647.050	17936.706
647.178	17917.608
647.306	18120.294
647.434	17924.765
647.563	17902.353
647.691	17889.314
647.819	17916.314
647.947	17819.647
648.075	17844.196
648.203	17778.961
648.331	17831.196
648.459	17841.157
648.588	17748.314
648.716	17878.196
648.844	17783.569
648.972	17770.451
649.100	17795.078
649.228	17763.118
649.356	17802.882
649.484	17760.216
649.613	17796.118
649.741	17710.569
649.869	17711.863
649.997	17764.078
650.125	17745.922
650.253	17715.392
650.381	17642.784
650.509	17572.569
650.638	17554.784
650.766	17818.863
650.894	17633.020
651.022	17533.922
651.150	17634.235
651.278	17669.725
651.406	17698.020
651.534	17591.020
651.663	17681.392
651.791	17830.941
651.919	17572.569
652.047	17551.647
652.175	17636.608
652.303	17608.275
652.431	17612.608
652.559	17654.627
652.688	17626.667
652.816	17677.137
652.944	17683.647
653.072	17619.196
653.200	17619.882
653.328	17666.078
653.456	17575.039
653.584	17761.392
653.713	17668.549
653.841	17666.157
653.969	17641.706
654.097	17704.059
654.225	17699.647
654.353	17730.804
654.481	17764.333
654.609	17840.059
654.738	17759.784
654.866	17814.431
654.994	17925.471
655.122	17859.922
655.250	17944.608
655.378	17727.647
655.506	17863.843
655.634	17903.941
655.763	17701.392
655.891	17741.608
656.019	17665.078
656.147	17699.137
656.275	17714.706
656.403	17645.843
656.531	17595.941
656.659	17590.627
656.788	17617.176
656.916	17516.745
657.044	17542.863
657.172	17567.392
657.300	17682.784
657.428	17504.961
657.556	17581.000
657.684	17457.020
657.813	17498.353
657.941	17440.373
658.069	17431.980
658.197	17330.549
658.325	17402.784
658.453	17294.373
658.581	17278.627
658.709	17269.902
658.838	17371.118
658.966	17233.294
659.094	17196.020
659.222	17132.373
659.350	17144.059
659.478	17205.039
659.606	17225.216
659.734	17153.176
659.863	17055.059
659.991	17013.294
660.119	17040.961
660.247	17100.275
660.375	16908.725
660.503	16885.745
660.631	16995.941
660.759	16871.137
660.888	16855.333
661.016	16759.039
661.144	16782.000
661.272	16816.176
661.400	16768.902
661.528	16784.608
661.656	16689.000
661.784	16652.745
661.913	16725.294
662.041	16819.000
662.169	16729.118
662.297	16850.745
662.425	16754.235
662.553	16849.275
662.681	16757.000
662.809	16847.627
662.938	16719.137
663.066	16736.804
663.194	16746.431
663.322	16800.039
663.450	16793.235
663.578	16836.706
663.706	16949.451
663.834	16842.588
663.963	16766.922
664.091	16790.961
664.219	16762.235
664.347	16889.784
664.475	16933.294
664.603	16843.784
664.731	16770.059
664.859	16851.902
664.988	16867.059
665.116	16820.098
665.244	16862.059
665.372	16888.098
665.500	16935.627
665.628	16842.059
665.756	16830.667
665.884	16911.824
666.013	16971.314
666.141	16903.667
666.269	16939.824
666.397	16924.725
666.525	17019.824
666.653	17018.235
666.781	17148.451
666.909	17111.373
667.038	17123.961
667.166	17068.961
667.294	17084.275
667.422	17105.451
667.550	17224.902
667.678	17180.431
667.806	17186.235
667.934	17168.137
668.063	17249.314
668.191	17335.902
668.319	17425.627
668.447	17333.059
668.575	17390.216
668.703	17329.784
668.831	17351.608
668.959	17394.804
669.088	17606.804
669.216	17460.353
669.344	17488.588
669.472	17513.412
669.600	17558.824
669.728	17617.314
669.856	17494.784
669.984	17529.863
670.113	17444.314
670.241	17404.765
670.369	17515.961
670.497	17448.255
670.625	17472.647
670.753	17701.863
670.881	17700.314
671.009	17555.706
671.138	17586.353
671.266	17531.255
671.394	17517.569
671.522	17607.627
671.650	17501.627
671.778	17505.588
671.906	17482.314
672.034	17474.059
672.163	17475.078
672.291	17475.510
672.419	17413.725
672.547	17398.039
672.675	17354.863
672.803	17430.804
672.931	17392.745
673.059	17371.784
673.188	17337.471
673.316	17320.294
673.444	17386.373
673.572	17480.373
673.700	17284.137
673.828	17322.255
673.956	17283.451
674.084	17197.804
674.213	17267.039
674.341	17212.863
674.469	17182.686
674.597	17208.941
674.725	17253.196
674.853	17057.980
674.981	17220.078
675.109	17032.667
675.238	17078.745
675.366	17009.706
675.494	17013.196
675.622	17102.471
675.750	17160.098
675.878	17112.529
676.006	17158.020
676.134	17078.333
676.263	17038.706
676.391	17032.314
676.519	17005.216
676.647	17012.824
676.775	17012.059
676.903	17150.451
677.031	17027.451
677.159	17027.745
677.288	17256.843
677.416	17080.196
677.544	17078.686
677.672	17040.941
677.800	17012.176
677.928	17005.686
678.056	17082.706
678.184	16997.686
678.313	17078.078
678.441	16994.667
678.569	17288.059
678.697	17084.216
678.825	17056.588
678.953	17102.196
679.081	17056.059
679.209	17093.922
679.338	17147.098
679.466	17052.471
679.594	17043.216
679.722	17058.706
679.850	17050.765
679.978	17117.725
680.106	17077.961
680.234	17022.451
680.363	17092.765
680.491	17059.216
680.619	17302.098
680.747	17234.471
680.875	17203.627
681.003	17167.000
681.131	17255.353
681.259	17184.510
681.388	17181.667
681.516	17374.039
681.644	17242.627
681.772	17402.098
681.900	17294.490
682.028	17325.255
682.156	17311.314
682.284	17375.510
682.413	17463.784
682.541	17424.412
682.669	17524.627
682.797	17547.137
682.925	17660.549
683.053	17703.804
683.181	17670.608
683.309	17743.765
683.438	17758.039
683.566	17857.686
683.694	17854.549
683.822	17929.667
683.950	17884.275
684.078	17935.294
684.206	18007.510
684.334	18075.451
684.463	18140.980
684.591	18060.373
684.719	18042.941
684.847	18036.529
684.975	18153.157
685.103	18089.608
685.231	18255.000
685.359	18126.922
685.488	18211.961
685.616	18211.471
685.744	18265.863
685.872	18216.549
686.000	18302.294
686.128	18240.686
686.256	18220.569
686.384	18349.373
686.513	18290.078
686.641	18420.941
686.769	18387.549
686.897	18452.588
687.025	18385.373
687.153	18486.725
687.281	18444.627
687.409	18501.373
687.538	18433.176
687.666	18493.373
687.794	18494.922
687.922	18460.059
688.050	18476.490
688.178	18572.157
688.306	18618.490
688.434	18497.980
688.563	18563.098
688.691	18534.353
688.819	18647.098
688.947	18577.235
689.075	18686.000
689.203	18684.569
689.331	18642.902
689.459	18681.588
689.588	18743.373
689.716	18726.902
689.844	18745.020
689.972	18717.706
690.100	18676.529
690.228	18772.608
690.356	18715.020
690.484	18814.451
690.613	18670.941
690.741	18706.647
690.869	18703.333
690.997	18631.000
691.125	18971.667
691.253	18892.941
691.381	18740.412
691.509	18680.745
691.638	18711.569
691.766	18731.118
691.894	18841.725
692.022	18812.961
692.150	18861.961
692.278	18748.098
692.406	18780.608
692.534	18809.039
692.663	18798.804
692.791	18777.686
692.919	18779.725
693.047	18822.725
693.175	18841.039
693.303	18946.549
693.431	18800.471
693.559	18846.294
693.688	18944.922
693.816	18766.059
693.944	18896.157
694.072	18797.392
694.200	18772.843
694.328	18772.588
694.456	18887.412
694.584	18722.686
694.713	18824.392
694.841	18782.059
694.969	18840.255
695.097	18989.784
695.225	18779.843
695.353	18975.059
695.481	18862.804
695.609	18983.627
695.738	18882.118
695.866	18940.275
695.994	18830.137
696.122	19006.745
696.250	18967.039
696.378	18961.412
696.506	18879.882
696.634	18910.353
696.763	18893.176
696.891	18917.745
697.019	18944.843
697.147	19071.686
697.275	18899.039
697.403	18996.902
697.531	18967.549
697.659	18969.412
697.788	19091.667
697.916	19016.137
698.044	19069.765
698.172	19079.863
698.300	19151.000
698.428	19057.922
698.556	19069.471
698.684	19072.431
698.813	19179.451
698.941	19210.098
699.069	19112.059
699.197	19156.922
699.325	19127.294
699.453	19115.275
699.581	19300.098
699.709	19177.824
699.838	19197.980
699.966	19157.039
700.094	19222.157
700.222	19417.098
700.350	19352.765
700.478	19290.843
700.606	19281.098
700.734	19182.941
700.863	19272.922
700.991	19275.549
701.119	19265.941
701.247	19232.471
701.375	19313.529
701.503	19202.196
701.631	19216.843
701.759	19192.706
701.888	19321.490
702.016	19476.020
702.144	19305.353
702.272	19309.961
702.400	19332.902
702.528	19377.686
702.656	19439.294
702.784	19356.627
702.913	19392.941
703.041	19332.294
703.169	19475.529
703.297	19364.824
703.425	19384.902
703.553	19364.471
703.681	19384.843
703.809	19365.392
703.938	19358.843
704.066	19516.824
704.194	19402.176
704.322	19324.941
704.450	19381.392
704.578	19325.255
704.706	19415.412
704.834	19334.804
704.963	19378.216
705.091	19249.176
705.219	19311.020
705.347	19207.686
705.475	19183.020
705.603	19199.235
705.731	19178.294
705.859	19121.725
705.988	19119.941
706.116	19088.294
706.244	19037.980
706.372	19156.922
706.500	19036.980
706.628	19125.137
706.756	19060.196
706.884	19063.882
707.013	19121.706
707.141	18975.294
707.269	19081.333
707.397	18904.020
707.525	18853.039
707.653	18867.902
707.781	18813.745
707.909	18738.059
708.038	18817.647
708.166	18678.196
708.294	18669.431
708.422	18636.922
708.550	18630.118
708.678	18543.471
708.806	18652.686
708.934	18483.392
709.063	18553.529
709.191	18495.569
709.319	18485.039
709.447	18516.902
709.575	18523.196
709.703	18526.392
709.831	18662.765
709.959	18621.745
710.088	18683.980
710.216	18818.078
710.344	18737.863
710.472	18818.020
710.600	18906.569
710.728	18861.882
710.856	18878.569
710.984	18966.373
711.113	18915.216
711.241	18976.373
711.369	19016.941
711.497	18951.549
711.625	18978.333
711.753	18976.000
711.881	18979.451
712.009	19101.137
712.138	19080.137
712.266	19016.157
712.394	19060.961
712.522	19021.157
712.650	19017.490
712.778	19073.392
712.906	19048.059
713.034	19032.039
713.163	19127.647
713.291	19096.314
713.419	19155.118
713.547	19081.745
713.675	19067.863
713.803	18987.961
713.931	19101.196
714.059	19037.137
714.188	19112.784
714.316	19117.118
714.444	19113.255
714.572	19225.627
714.700	19214.843
714.828	19158.059
714.956	19190.431
715.084	19200.275
715.213	19225.353
715.341	19252.235
715.469	19263.941
715.597	19367.490
715.725	19281.510
715.853	19247.941
715.981	19292.431
716.109	19321.784
716.238	19303.784
716.366	19304.294
716.494	19383.137
716.622	19286.706
716.750	19331.510
716.878	19366.961
717.006	19347.980
717.134	19268.020
717.263	19218.843
717.391	19318.627
717.519	19257.275
717.647	19287.294
717.775	19159.647
717.903	19181.863
718.031	19118.431
718.159	19101.941
718.288	19116.353
718.416	19102.706
718.544	19020.216
718.672	19034.490
718.800	19082.157
718.928	19023.667
719.056	19013.588
719.184	19029.824
719.313	18956.667
719.441	19015.804
719.569	18923.686
719.697	19006.412
719.825	19008.863
719.953	18973.216
720.081	18922.843
720.209	18850.765
720.338	18784.294
720.466	18794.510
720.594	18820.863
720.722	18867.039
720.850	18699.529
720.978	18664.902
721.106	18601.882
721.234	18607.863
721.363	18583.078
721.491	18534.961
721.619	18449.137
721.747	18410.980
721.875	18474.392
722.003	18371.706
722.131	18339.745
722.259	18348.412
722.388	18436.922
722.516	18202.314
722.644	18221.176
722.772	18148.078
722.900	18169.216
723.028	18136.843
723.156	18019.098
723.284	18042.647
723.413	18031.725
723.541	18004.196
723.669	17948.843
723.797	17929.588
723.925	17898.843
724.053	17882.706
724.181	17818.804
724.309	17846.941
724.438	17809.961
724.566	17837.412
724.694	17724.784
724.822	17707.804
724.950	17771.098
725.078	17700.941
725.206	17720.059
725.334	17707.961
725.463	17722.647
725.591	17798.216
725.719	17845.784
725.847	17633.412
725.975	17616.392
726.103	17632.647
726.231	17488.431
726.359	17554.039
726.488	17672.941
726.616	17527.824
726.744	17599.255
726.872	17515.529
727.000	17620.333
727.128	17586.588
727.256	17634.078
727.384	17595.961
727.513	17551.431
727.641	17538.020
727.769	17527.314
727.897	17574.098
728.025	17471.216
728.153	17519.882
728.281	17538.922
728.409	17495.353
728.538	17539.706
728.666	17536.569
728.794	17532.549
728.922	17529.137
729.050	17497.588
729.178	17511.216
729.306	17526.824
729.434	17517.961
729.563	17544.157
729.691	17520.039
729.819	17523.647
729.947	17545.314
730.075	17512.980
730.203	17517.922
730.331	17474.510
730.459	17530.314
730.588	17484.784
730.716	17602.431
730.844	17516.961
730.972	17576.176
731.100	17562.137
731.228	17655.000
731.356	17660.196
731.484	17644.431
731.613	17707.902
731.741	17637.157
731.869	17672.686
731.997	17656.863
732.125	17741.176
732.253	17762.765
732.381	17711.824
732.509	17828.667
732.638	17728.412
732.766	17770.039
732.894	17816.902
733.022	17846.000
733.150	17912.431
733.278	17893.824
733.406	17775.784
733.534	17868.373
733.663	17845.569
733.791	17958.157
733.919	17912.980
734.047	17899.059
734.175	17907.667
734.303	17902.980
734.431	17899.098
734.559	17937.765
734.688	17885.059
734.816	17921.784
734.944	17956.667
735.072	17983.078
735.200	17969.275
735.328	17880.216
735.456	17937.882
735.584	17931.902
735.713	18026.647
735.841	17865.137
735.969	18152.549
736.097	17941.333
736.225	17877.039
736.353	17983.765
736.481	17968.863
736.609	18024.882
736.738	18038.373
736.866	17962.549
736.994	17997.804
737.122	17996.922
737.250	18042.529
737.378	17946.000
737.506	17958.824
737.634	17947.863
737.763	17920.765
737.891	17989.000
738.019	17897.333
738.147	18038.529
738.275	17896.922
738.403	17920.922
738.531	17913.275
738.659	17921.608
738.788	17880.902
738.916	17937.510
739.044	17940.667
739.172	17867.157
739.300	17937.196
739.428	17885.627
739.556	17834.020
739.684	17822.373
739.813	17904.686
739.941	17832.627
740.069	17792.549
740.197	17804.804
740.325	17797.941
740.453	17823.627
740.581	17819.431
740.709	17723.745
740.838	17750.059
740.966	17703.471
741.094	17782.490
741.222	17720.020
741.350	17782.118
741.478	17689.863
741.606	17635.804
741.734	17615.902
741.863	17656.098
741.991	17614.706
742.119	17625.882
742.247	17780.373
742.375	17622.588
742.503	17605.176
742.631	17598.412
742.759	17591.490
742.888	17609.451
743.016	17562.510
743.144	17545.529
743.272	17574.020
743.400	17579.627
743.528	17503.882
743.656	17529.373
743.784	17712.118
743.913	17553.059
744.041	17507.333
744.169	17532.804
744.297	17627.314
744.425	17465.373
744.553	17399.000
744.681	17439.902
744.809	17371.510
744.938	17384.686
745.066	17427.588
745.194	17328.882
745.322	17435.431
745.450	17346.941
745.578	17359.647
745.706	17353.510
745.834	17250.059
745.963	17269.353
746.091	17273.157
746.219	17246.471
746.347	17255.725
746.475	17216.118
746.603	17164.196
746.731	17169.608
746.859	17116.980
746.988	17153.608
747.116	17235.824
747.244	17132.020
747.372	17196.137
747.500	17119.471
747.628	17211.255
747.756	17124.824
747.884	17264.588
748.013	17258.686
748.141	17194.529
748.269	17200.725
748.397	17152.314
748.525	17242.980
748.653	17179.824
748.781	17308.059
748.909	17200.098
749.038	17205.294
749.166	17188.627
749.294	17285.235
749.422	17213.608
749.550	17183.314
749.678	17167.902
749.806	17197.275
749.934	17220.451
750.063	17165.039
750.191	17236.824
750.319	17170.627
750.447	17185.078
750.575	17239.216
750.703	17137.510
750.831	17187.588
750.959	17164.157
751.088	17222.980
751.216	17183.353
751.344	17114.725
751.472	17156.157
751.600	17201.412
751.728	17192.569
751.856	17233.059
751.984	17219.667
752.113	17219.784
752.241	17143.020
752.369	17133.255
752.497	17314.373
752.625	17129.569
752.753	17105.294
752.881	17095.255
753.009	17053.980
753.138	17053.275
753.266	17118.490
753.394	17074.588
753.522	17152.784
753.650	17068.196
753.778	17105.725
753.906	17093.686
754.034	17132.667
754.163	17089.157
754.291	17243.373
754.419	17143.667
754.547	17113.451
754.675	17093.510
754.803	17108.020
754.931	17093.353
755.059	17117.647
755.188	17164.431
755.316	17086.059
755.444	17074.137
755.572	17062.902
755.700	17003.392
755.828	17011.882
755.956	16999.157
756.084	17044.353
756.213	17015.255
756.341	16991.686
756.469	17000.275
756.597	17019.784
756.725	16961.157
756.853	16999.098
756.981	17004.980
757.109	17025.196
757.238	16937.961
757.366	16913.098
757.494	16921.294
757.622	16940.353
757.750	16949.667
757.878	16944.118
758.006	16974.196
758.134	16912.020
758.263	16916.039
758.391	16873.000
758.519	16886.431
758.647	16863.196
758.775	16841.255
758.903	16822.647
759.031	16852.824
759.159	16818.431
759.288	16953.275
759.416	16686.373
759.544	16818.784
759.672	16835.667
759.800	16807.431
759.928	16716.647
760.056	16791.549
760.184	16735.725
760.313	16706.000
760.441	16720.333
760.569	16652.980
760.697	16675.745
760.825	16676.098
760.953	16694.824
761.081	16655.314
761.209	16609.824
761.338	16622.373
761.466	16654.000
761.594	16748.706
761.722	16704.118
761.850	16551.824
761.978	16508.020
762.106	16537.882
762.234	16539.980
762.363	16487.020
762.491	16408.412
762.619	16463.392
762.747	16483.255
762.875	16420.431
763.003	16417.392
763.131	16406.078
763.259	16358.451
763.388	16384.961
763.516	16328.353
763.644	16399.216
763.772	16301.235
763.900	16291.784
764.028	16292.804
764.156	16350.706
764.284	16260.961
764.413	16252.647
764.541	16348.020
764.669	16283.765
764.797	16282.118
764.925	16300.353
765.053	16169.529
765.181	16213.373
765.309	16197.373
765.438	16160.333
765.566	16188.765
765.694	16171.706
765.822	16291.843
765.950	16149.294
766.078	16112.667
766.206	16075.961
766.334	16155.118
766.463	16134.922
766.591	16157.078
766.719	16122.588
766.847	16137.686
766.975	16097.471
767.103	16016.196
767.231	16078.275
767.359	16012.275
767.488	16029.784
767.616	15952.725
767.744	16011.373
767.872	16057.706
768.000	16017.569
768.128	16009.157
768.256	16003.235
768.384	15967.020
768.513	15983.902
768.641	16025.412
768.769	16032.118
768.897	15989.020
769.025	16063.824
769.153	15935.314
769.281	15977.745
769.409	15876.882
769.538	15936.765
769.666	15933.275
769.794	15957.020
769.922	16025.588
770.050	15888.608
770.178	15938.882
770.306	15914.353
770.434	15898.490
770.563	15873.745
770.691	15953.627
770.819	15818.725
770.947	15849.412
771.075	15794.863
771.203	15780.275
771.331	15902.843
771.459	15760.039
771.588	15799.510
771.716	15695.941
771.844	15784.373
771.972	15841.980
772.100	15704.549
772.228	15714.765
772.356	15748.314
772.484	15657.804
772.613	15710.824
772.741	15717.627
772.869	15805.824
772.997	15664.882
773.125	15792.451
773.253	15759.529
773.381	15677.627
773.509	15696.745
773.638	15683.490
773.766	15646.647
773.894	15582.980
774.022	15639.588
774.150	15611.863
774.278	15667.196
774.406	15647.569
774.534	15664.725
774.663	15641.216
774.791	15579.529
774.919	15719.608
775.047	15605.902
775.175	15604.294
775.303	15648.941
775.431	15553.980
775.559	15527.667
775.688	15572.882
775.816	15604.020
775.944	15528.412
776.072	15622.412
776.200	15528.157
776.328	15588.510
776.456	15579.118
776.584	15544.353
776.713	15610.902
776.841	15483.980
776.969	15586.824
777.097	15587.118
777.225	15685.961
777.353	15596.667
777.481	15609.922
777.609	15625.804
777.738	15629.373
777.866	15604.176
777.994	15538.588
778.122	15666.000
778.250	15689.882
778.378	15664.451
778.506	15683.510
778.634	15628.118
778.763	15708.392
778.891	15669.255
779.019	15675.647
779.147	15697.314
779.275	15707.216
779.403	15674.725
779.531	15666.196
779.659	15628.843
779.788	15669.627
779.916	15599.333
780.044	15582.196
780.172	15648.451
780.300	15536.569
780.428	15620.529
780.556	15722.098
780.684	15627.294
780.813	15615.098
780.941	15487.294
781.069	15524.569
781.197	15572.176
781.325	15725.118
781.453	15498.275
781.581	15565.373
781.709	15514.686
781.838	15514.098
781.966	15447.843
782.094	15487.804
782.222	15623.882
782.350	15482.431
782.478	15544.157
782.606	15476.902
782.734	15498.686
782.863	15477.176
782.991	15446.490
783.119	15494.922
783.247	15460.471
783.375	15455.804
783.503	15465.627
783.631	15528.549
783.759	15381.941
783.888	15436.059
784.016	15429.275
784.144	15435.392
784.272	15334.039
784.400	15464.451
784.528	15419.431
784.656	15501.882
784.784	15376.745
784.913	15332.294
785.041	15369.196
785.169	15314.627
785.297	15267.176
785.425	15227.510
785.553	15318.745
785.681	15229.961
785.809	15417.647
785.938	15229.647
786.066	15260.510
786.194	15203.627
786.322	15206.667
786.450	15213.549
786.578	15185.745
786.706	15143.961
786.834	15147.843
786.963	15177.176
787.091	15082.843
787.219	15110.373
787.347	15059.824
787.475	15101.255
787.603	15131.157
787.731	15025.039
787.859	15091.686
787.988	15199.353
788.116	15105.510
788.244	15107.588
788.372	14991.157
788.500	15056.431
788.628	15002.549
788.756	14957.941
788.884	14984.922
789.013	14910.725
789.141	14947.353
789.269	14942.039
789.397	14937.157
789.525	14961.549
789.653	14918.000
789.781	14888.961
789.909	14837.431
790.038	14859.882
790.166	14855.549
790.294	14692.765
790.422	14750.392
790.550	14697.412
790.678	14643.039
790.806	14636.882
790.934	14673.686
791.063	14613.725
791.191	14667.392
791.319	14595.294
791.447	14607.882
791.575	14566.765
791.703	14560.255
791.831	14582.608
791.959	14522.961
792.088	14600.412
792.216	14480.647
792.344	14481.490
792.472	14371.843
792.600	14504.275
792.728	14381.902
792.856	14513.941
792.984	14378.137
793.113	14442.451
793.241	14337.471
793.369	14331.118
793.497	14359.745
793.625	14372.608
793.753	14374.294
793.881	14283.902
794.009	14334.196
794.138	14215.784
794.266	14278.980
794.394	14280.451
794.522	14255.608
794.650	14206.471
794.778	14247.529
794.906	14237.863
795.034	14290.765
795.163	14186.725
795.291	14215.137
795.419	14331.294
795.547	14182.706
795.675	14116.627
795.803	14180.902
795.931	14108.118
796.059	14038.510
796.188	14087.000
796.316	14061.569
796.444	14134.039
796.572	14050.294
796.700	14096.431
796.828	14018.941
796.956	14022.588
797.084	13958.863
797.213	13955.922
797.341	13897.647
797.469	13935.922
797.597	13959.137
797.725	13813.745
797.853	13888.804
797.981	13814.647
798.109	13844.118
798.238	13762.804
798.366	13898.216
798.494	13789.706
798.622	13846.059
798.750	13800.157
798.878	13770.196
799.006	13753.902
799.134	13675.118
799.263	13639.157
799.391	13664.157
799.519	13649.471
799.647	13607.863
799.775	13614.078
799.903	13501.961
800.031	13521.039
800.159	13498.824
800.288	13454.471
800.416	13365.039
800.544	13394.137
800.672	13317.882
800.800	13325.529
800.928	13281.333
801.056	13332.529
801.184	13325.941
801.313	13306.118
801.441	13207.765
801.569	13191.412
801.697	13206.902
801.825	13245.137
801.953	13203.804
802.081	13220.392
802.209	13175.725
802.338	13139.451
802.466	13108.843
802.594	13033.784
802.722	13047.196
802.850	12993.314
802.978	13006.353
803.106	12958.255
803.234	12985.922
803.363	12928.157
803.491	12962.118
803.619	12897.196
803.747	12895.804
803.875	12841.275
804.003	12822.588
804.131	12849.235
804.259	12782.647
804.388	12804.725
804.516	12825.667
804.644	12789.588
804.772	12792.176
804.900	12763.627
805.028	12732.863
805.156	12720.098
805.284	12757.765
805.413	12747.941
805.541	12716.059
805.669	12715.392
805.797	12687.196
805.925	12671.725
806.053	12623.020
806.181	12650.529
806.309	12543.588
806.438	12528.294
806.566	12560.765
806.694	12549.471
806.822	12474.902
806.950	12489.392
807.078	12411.431
807.206	12453.000
807.334	12359.431
807.463	12375.275
807.591	12370.608
807.719	12399.294
807.847	12354.941
807.975	12346.647
808.103	12317.235
808.231	12323.588
808.359	12257.784
808.488	12252.824
808.616	12169.196
808.744	12191.706
808.872	12191.961
809.000	12172.725
809.128	12198.843
809.256	12086.059
809.384	12079.706
809.513	11987.196
809.641	12027.137
809.769	12017.431
809.897	12031.961
810.025	12002.902
810.153	12052.000
810.281	12048.451
810.409	11998.686
810.538	11976.216
810.666	11953.922
810.794	11947.941
810.922	11985.392
811.050	12013.333
811.178	11959.627
811.306	11924.333
811.434	11951.725
811.563	11885.412
811.691	11898.647
811.819	11805.020
811.947	11862.529
812.075	11830.412
812.203	11859.922
812.331	11762.745
812.459	11795.961
812.588	11817.098
812.716	11767.980
812.844	11636.471
812.972	11642.980
813.100	11623.490
813.228	11601.157
813.356	11617.176
813.484	11630.529
813.613	11625.490
813.741	11630.353
813.869	11111.941
