spectrometer_0_100nm_einzel_at_650.00nm_cut_at_1184.50Y_01.dat
02.05.2022
11:38:03
cut middle at Y: 1184.50
top cursor: 1210 down cursor: 1159 mean of: 51 lines , 2560 datapoints
wavelength(nm)	intensity[arb. units]
485.997	6130.314
486.125	5624.863
486.253	5517.627
486.381	5574.431
486.510	5619.157
486.638	5712.020
486.766	5731.529
486.894	5733.784
487.022	5756.176
487.150	5766.765
487.278	5769.647
487.406	5780.314
487.535	5832.941
487.663	5858.902
487.791	5892.941
487.919	5882.314
488.047	5828.510
488.175	5892.333
488.303	5929.137
488.431	5914.627
488.560	5947.608
488.688	6007.804
488.816	5954.667
488.944	6045.824
489.072	6031.196
489.200	6045.902
489.328	6083.608
489.456	6157.863
489.585	6118.176
489.713	6132.824
489.841	6151.686
489.969	6158.059
490.097	6225.529
490.225	6228.255
490.353	6279.157
490.481	6325.000
490.610	6281.196
490.738	6312.471
490.866	6435.235
490.994	6344.020
491.122	6419.176
491.250	6393.471
491.378	6453.765
491.506	6553.863
491.635	6467.196
491.763	6479.706
491.891	6493.039
492.019	6550.235
492.147	6524.294
492.275	6526.412
492.403	6507.490
492.531	6675.059
492.660	6628.569
492.788	6603.706
492.916	6667.745
493.044	6619.784
493.172	6667.922
493.300	6698.608
493.428	6687.196
493.556	6752.980
493.685	6814.686
493.813	6793.529
493.941	6850.216
494.069	6902.686
494.197	6899.255
494.325	7011.373
494.453	7135.176
494.581	7040.667
494.710	7114.961
494.838	7154.647
494.966	7213.647
495.094	7179.706
495.222	7305.000
495.350	7280.020
495.478	7320.569
495.606	7384.569
495.735	7403.627
495.863	7426.902
495.991	7450.235
496.119	7472.314
496.247	7538.706
496.375	7467.863
496.503	7484.353
496.631	7526.490
496.760	7448.882
496.888	7517.216
497.016	7470.980
497.144	7471.882
497.272	7467.882
497.400	7483.059
497.528	7463.431
497.656	7428.157
497.785	7399.000
497.913	7385.176
498.041	7367.255
498.169	7341.157
498.297	7308.490
498.425	7472.314
498.553	7343.706
498.681	7338.922
498.810	7424.255
498.938	7366.098
499.066	7380.451
499.194	7423.922
499.322	7406.176
499.450	7415.196
499.578	7403.529
499.706	7462.137
499.835	7502.235
499.963	7503.059
500.091	7501.490
500.219	7538.588
500.347	7578.627
500.475	7568.529
500.603	7602.706
500.731	7636.196
500.860	7659.176
500.988	7723.137
501.116	7695.804
501.244	7779.098
501.372	7796.608
501.500	7812.471
501.628	7820.843
501.756	7879.980
501.885	7917.804
502.013	7909.353
502.141	7951.686
502.269	7971.059
502.397	8093.510
502.525	8058.706
502.653	8091.843
502.781	8052.588
502.910	8132.412
503.038	8124.843
503.166	8147.157
503.294	8176.490
503.422	8149.490
503.550	8184.118
503.678	8136.098
503.806	8178.353
503.935	8141.706
504.063	8192.588
504.191	8170.686
504.319	8182.333
504.447	8101.235
504.575	8144.196
504.703	8195.725
504.831	8161.529
504.960	8117.627
505.088	8144.490
505.216	8239.686
505.344	8291.627
505.472	8208.784
505.600	8206.176
505.728	8325.157
505.856	8242.510
505.985	8319.549
506.113	8307.294
506.241	8320.961
506.369	8353.824
506.497	8318.902
506.625	8396.196
506.753	8360.078
506.881	8400.902
507.010	8411.784
507.138	8436.647
507.266	8504.373
507.394	8412.725
507.522	8538.980
507.650	8443.765
507.778	8506.255
507.906	8563.196
508.035	8547.510
508.163	8600.569
508.291	8613.765
508.419	8720.412
508.547	8683.725
508.675	8744.549
508.803	8722.314
508.931	8723.235
509.060	8735.314
509.188	8755.275
509.316	8785.765
509.444	8830.118
509.572	8959.412
509.700	8885.608
509.828	8973.392
509.956	8955.216
510.085	8947.059
510.213	8972.000
510.341	8950.235
510.469	9048.373
510.597	9060.824
510.725	9066.176
510.853	9160.863
510.981	9146.353
511.110	9155.078
511.238	9153.804
511.366	9182.627
511.494	9229.588
511.622	9261.353
511.750	9277.765
511.878	9298.176
512.006	9317.392
512.135	9374.118
512.263	9385.157
512.391	9462.588
512.519	9521.373
512.647	9477.118
512.775	9553.020
512.903	9578.412
513.031	9612.020
513.160	9623.216
513.288	9720.078
513.416	9626.922
513.544	9673.647
513.672	9647.941
513.800	9682.863
513.928	9696.157
514.056	9723.882
514.185	9662.706
514.313	9672.490
514.441	9757.235
514.569	9662.216
514.697	9667.784
514.825	9658.137
514.953	9674.314
515.081	9659.490
515.210	9646.490
515.338	9719.157
515.466	9610.902
515.594	9651.137
515.722	9609.569
515.850	9616.196
515.978	9582.647
516.106	9581.314
516.235	9592.353
516.363	9592.431
516.491	9580.882
516.619	9618.039
516.747	9683.686
516.875	9676.039
517.003	9681.059
517.131	9673.765
517.260	9652.922
517.388	9736.353
517.516	9719.863
517.644	9793.843
517.772	9840.137
517.900	9814.196
518.028	9922.098
518.156	9910.137
518.284	9932.784
518.413	9967.529
518.541	10003.529
518.669	9995.392
518.797	10059.157
518.925	10077.118
519.053	10110.333
519.181	10133.176
519.309	10174.961
519.438	10219.549
519.566	10251.275
519.694	10205.784
519.822	10337.412
519.950	10334.020
520.078	10369.529
520.206	10421.431
520.334	10444.706
520.463	10427.980
520.591	10478.882
520.719	10465.490
520.847	10479.471
520.975	10493.000
521.103	10582.098
521.231	10513.353
521.359	10682.510
521.488	10589.863
521.616	10674.471
521.744	10557.922
521.872	10656.255
522.000	10513.922
522.128	10584.431
522.256	10582.314
522.384	10568.314
522.513	10552.098
522.641	10540.235
522.769	10621.412
522.897	10640.275
523.025	10651.216
523.153	10585.078
523.281	10674.961
523.409	10575.255
523.538	10646.314
523.666	10596.118
523.794	10652.588
523.922	10647.471
524.050	10675.804
524.178	10666.039
524.306	10702.235
524.434	10755.882
524.563	10841.647
524.691	10937.373
524.819	10799.902
524.947	10885.608
525.075	10922.980
525.203	11001.608
525.331	11066.412
525.459	11150.529
525.588	11208.843
525.716	11298.608
525.844	11300.804
525.972	11407.765
526.100	11401.667
526.228	11517.078
526.356	11506.451
526.484	11639.824
526.613	11623.490
526.741	11702.961
526.869	11692.471
526.997	11792.843
527.125	11804.569
527.253	11744.255
527.381	11860.745
527.509	11900.333
527.638	12002.510
527.766	12047.922
527.894	12050.961
528.022	12130.098
528.150	12066.510
528.278	12143.529
528.406	12107.627
528.534	12208.765
528.663	12197.392
528.791	12269.765
528.919	12218.137
529.047	12327.529
529.175	12182.922
529.303	12235.765
529.431	12240.569
529.559	12280.196
529.688	12229.863
529.816	12255.020
529.944	12390.078
530.072	12269.431
530.200	12264.176
530.328	12308.882
530.456	12270.824
530.584	12306.490
530.713	12330.118
530.841	12290.608
530.969	12268.863
531.097	12263.000
531.225	12240.392
531.353	12424.373
531.481	12321.902
531.609	12421.098
531.738	12273.353
531.866	12373.980
531.994	12371.431
532.122	12512.549
532.250	12414.294
532.378	12363.961
532.506	12372.824
532.634	12342.020
532.763	12360.235
532.891	12355.137
533.019	12369.373
533.147	12371.882
533.275	12380.451
533.403	12422.843
533.531	12489.353
533.659	12478.569
533.788	12445.196
533.916	12503.353
534.044	12534.549
534.172	12610.000
534.300	12600.412
534.428	12590.235
534.556	12775.314
534.684	12637.608
534.813	12621.980
534.941	12624.020
535.069	12666.529
535.197	12612.196
535.325	12673.118
535.453	12634.922
535.581	12785.725
535.709	12665.608
535.838	12770.647
535.966	12789.098
536.094	12769.765
536.222	12789.451
536.350	12831.667
536.478	12770.098
536.606	12873.529
536.734	12918.490
536.863	12884.529
536.991	12899.706
537.119	12934.706
537.247	12901.196
537.375	13096.333
537.503	12924.510
537.631	12939.706
537.759	13035.667
537.888	13013.039
538.016	13167.196
538.144	13058.882
538.272	13032.902
538.400	13084.314
538.528	13102.157
538.656	13171.451
538.784	13135.333
538.913	13247.020
539.041	13233.882
539.169	13230.235
539.297	13221.627
539.425	13335.549
539.553	13340.902
539.681	13379.157
539.809	13392.255
539.938	13394.020
540.066	13423.137
540.194	13519.647
540.322	13615.471
540.450	13612.922
540.578	13529.529
540.706	13643.510
540.834	13659.706
540.963	13783.235
541.091	13707.627
541.219	13746.392
541.347	13826.471
541.475	13835.627
541.603	13850.843
541.731	13899.294
541.859	13885.902
541.988	13931.392
542.116	14170.333
542.244	14059.314
542.372	14226.667
542.500	14022.000
542.628	14077.510
542.756	14080.824
542.884	14066.471
543.013	14074.294
543.141	14133.157
543.269	14121.843
543.397	14010.961
543.525	14056.549
543.653	14092.941
543.781	13997.725
543.909	13952.843
544.038	14090.451
544.166	14051.020
544.294	14133.824
544.422	13916.431
544.550	13917.059
544.678	13965.275
544.806	13857.471
544.934	13851.706
545.063	13862.000
545.191	13902.863
545.319	13742.843
545.447	13744.765
545.575	13659.706
545.703	13727.647
545.831	13695.137
545.959	13637.882
546.088	13640.314
546.216	13637.804
546.344	13650.275
546.472	13799.078
546.600	13587.588
546.728	13659.922
546.856	13648.275
546.984	13690.216
547.113	13831.353
547.241	13814.275
547.369	13877.686
547.497	13852.373
547.625	13904.373
547.753	13881.706
547.881	13840.627
548.009	13839.941
548.138	13899.843
548.266	13829.078
548.394	13910.980
548.522	13842.392
548.650	13974.353
548.778	13896.235
548.906	13847.882
549.034	13940.922
549.163	13812.863
549.291	13836.627
549.419	13937.588
549.547	14251.235
549.675	14138.020
549.803	14257.569
549.931	14372.235
550.059	14378.882
550.188	14571.392
550.316	14629.922
550.444	14748.098
550.572	14770.431
550.700	14899.431
550.828	14955.255
550.956	15021.882
551.084	15133.549
551.213	15054.000
551.341	15106.608
551.469	15105.863
551.597	15161.980
551.725	15219.922
551.853	15264.294
551.981	15293.490
552.109	15334.863
552.238	15321.569
552.366	15382.294
552.494	15417.745
552.622	15455.137
552.750	15453.510
552.878	15428.667
553.006	15503.412
553.134	15477.294
553.263	15488.412
553.391	15513.471
553.519	15672.000
553.647	15537.451
553.775	15534.686
553.903	15666.941
554.031	15610.157
554.159	15597.490
554.288	15676.863
554.416	15630.980
554.544	15711.608
554.672	15697.118
554.800	15703.980
554.928	15677.745
555.056	15683.039
555.184	15744.569
555.313	15669.863
555.441	15672.490
555.569	15708.059
555.697	15713.314
555.825	15702.490
555.953	15773.020
556.081	15667.824
556.209	15726.235
556.338	15737.843
556.466	15920.000
556.594	15683.647
556.722	15766.412
556.850	15863.863
556.978	15678.353
557.106	15728.275
557.234	15718.941
557.363	15819.078
557.491	15820.098
557.619	15833.020
557.747	15783.216
557.875	15792.882
558.003	15794.627
558.131	15808.529
558.259	15848.843
558.388	15806.157
558.516	15843.412
558.644	15833.843
558.772	15876.588
558.900	15793.176
559.028	15801.902
559.156	15786.078
559.284	15760.275
559.413	15797.824
559.541	15786.980
559.669	15828.863
559.797	15874.647
559.925	15883.412
560.053	15937.863
560.181	15872.314
560.309	15903.078
560.438	15938.510
560.566	15948.843
560.694	15828.471
560.822	16017.333
560.950	15879.471
561.078	15855.333
561.206	16027.275
561.334	15882.961
561.463	15840.549
561.591	16041.020
561.719	15944.333
561.847	16009.824
561.975	15892.059
562.103	15958.118
562.231	15963.059
562.359	15851.843
562.488	15945.980
562.616	15961.118
562.744	15987.765
562.872	16003.941
563.000	15903.471
563.128	15960.275
563.256	15985.020
563.384	16161.608
563.513	15985.745
563.641	16116.294
563.769	16099.235
563.897	16094.588
564.025	16124.686
564.153	16162.882
564.281	16265.137
564.409	16198.118
564.538	16190.569
564.666	16303.804
564.794	16299.824
564.922	16275.627
565.050	16453.333
565.178	16382.118
565.306	16367.196
565.434	16448.490
565.563	16581.471
565.691	16477.667
565.819	16666.902
565.947	16508.961
566.075	16546.451
566.203	16593.078
566.331	16615.941
566.459	17401.804
566.588	16612.392
566.716	16601.569
566.844	16659.137
566.972	16709.059
567.100	16817.118
567.228	16855.078
567.356	16902.608
567.484	16918.353
567.613	16977.824
567.741	17018.529
567.869	17053.196
567.997	17066.235
568.125	17099.549
568.253	17207.647
568.381	17093.902
568.509	17196.353
568.638	17139.196
568.766	17265.451
568.894	17229.333
569.022	17204.451
569.150	17334.647
569.278	17290.275
569.406	17429.098
569.534	17402.039
569.663	17337.529
569.791	17373.314
569.919	17434.353
570.047	17505.059
570.175	17419.549
570.303	17376.216
570.431	17369.529
570.559	17484.078
570.688	17573.745
570.816	17428.843
570.944	17505.000
571.072	17449.255
571.200	17411.471
571.328	17451.765
571.456	17510.647
571.584	17488.176
571.713	17579.020
571.841	17471.098
571.969	17689.902
572.097	17705.588
572.225	17456.235
572.353	17510.627
572.481	17504.608
572.609	17495.314
572.738	17481.765
572.866	17478.216
572.994	17452.922
573.122	17425.765
573.250	17456.843
573.378	17448.686
573.506	17451.804
573.634	17508.804
573.763	17435.137
573.891	17432.667
574.019	17434.686
574.147	17455.196
574.275	17465.490
574.403	17495.451
574.531	17430.373
574.659	17441.431
574.788	17467.176
574.916	17609.451
575.044	17486.431
575.172	17452.549
575.300	17476.098
575.428	17414.098
575.556	17433.471
575.684	17464.471
575.813	17397.980
575.941	17461.196
576.069	17465.294
576.197	17582.451
576.325	17497.235
576.453	17470.039
576.581	17516.980
576.709	17603.216
576.838	17612.627
576.966	17791.686
577.094	17808.333
577.222	17829.765
577.350	17728.843
577.478	17911.490
577.606	17908.039
577.734	17953.490
577.863	18087.549
577.991	18106.000
578.119	18252.314
578.247	18300.451
578.375	18338.529
578.503	18319.137
578.631	18367.961
578.759	18470.608
578.888	18695.510
579.016	18494.353
579.144	18529.196
579.272	18600.725
579.400	18665.098
579.528	18688.451
579.656	18817.725
579.784	18792.765
579.913	18797.765
580.041	19045.608
580.169	18873.020
580.297	18992.961
580.425	19033.667
580.553	19096.118
580.681	19123.863
580.809	19180.039
580.938	19227.490
581.066	19376.333
581.194	19424.451
581.322	19381.725
581.450	19548.863
581.578	19528.294
581.706	19564.235
581.834	19665.549
581.963	19682.667
582.091	19687.216
582.219	19782.039
582.347	19780.059
582.475	19865.980
582.603	19968.843
582.731	20058.255
582.859	19969.588
582.988	20065.176
583.116	20144.078
583.244	20150.549
583.372	20227.314
583.500	20170.804
583.628	20321.137
583.756	20354.235
583.884	20347.078
584.013	20466.941
584.141	20395.353
584.269	20473.392
584.397	20518.196
584.525	20583.569
584.653	20655.569
584.781	20736.549
584.909	20737.745
585.038	20733.353
585.166	20726.667
585.294	20776.941
585.422	20755.137
585.550	20782.863
585.678	20775.098
585.806	20845.412
585.934	20861.549
586.063	20943.961
586.191	20809.667
586.319	20833.098
586.447	20835.745
586.575	20816.078
586.703	20883.353
586.831	20799.235
586.959	20853.882
587.088	20794.255
587.216	20866.000
587.344	20848.157
587.472	20953.451
587.600	20780.804
587.728	20808.804
587.856	20763.039
587.984	20870.843
588.113	20934.275
588.241	20898.000
588.369	20998.510
588.497	21022.333
588.625	20937.608
588.753	21180.961
588.881	21104.902
589.009	21107.647
589.138	21117.922
589.266	21110.039
589.394	21199.745
589.522	21252.235
589.650	21355.137
589.778	21345.902
589.906	21379.569
590.034	21299.765
590.163	21392.000
590.291	21419.627
590.419	21390.392
590.547	21385.961
590.675	21460.961
590.803	21406.294
590.931	21473.529
591.059	21476.235
591.188	21425.863
591.316	21508.941
591.444	21488.294
591.572	21550.275
591.700	21569.765
591.828	21568.922
591.956	21498.373
592.084	21522.980
592.213	21521.275
592.341	21534.549
592.469	21401.804
592.597	21460.196
592.725	21415.647
592.853	21383.196
592.981	21459.157
593.109	21385.745
593.238	21329.078
593.366	21299.451
593.494	21252.745
593.622	21243.098
593.750	21163.137
593.878	21260.804
594.006	21126.765
594.134	21143.510
594.263	21206.098
594.391	21111.039
594.519	21142.078
594.647	21128.725
594.775	21039.373
594.903	21096.765
595.031	21030.667
595.159	20991.078
595.288	20993.451
595.416	20975.667
595.544	20981.882
595.672	20901.176
595.800	20991.882
595.928	20867.039
596.056	20875.627
596.184	20756.627
596.313	20961.745
596.441	20847.118
596.569	20851.902
596.697	20724.039
596.825	20646.882
596.953	20724.176
597.081	20670.706
597.209	20665.588
597.338	20764.490
597.466	20753.412
597.594	20709.255
597.722	20930.039
597.850	20786.137
597.978	20888.059
598.106	20925.216
598.234	20957.078
598.363	20965.373
598.491	21134.020
598.619	21019.824
598.747	21077.235
598.875	21147.373
599.003	21123.275
599.131	21270.471
599.259	21319.020
599.388	21292.176
599.516	21465.627
599.644	21480.922
599.772	21582.922
599.900	21473.706
600.028	21517.216
600.156	21599.627
600.284	21540.255
600.413	21617.137
600.541	21703.745
600.669	21828.137
600.797	21753.176
600.925	21782.137
601.053	21834.373
601.181	21831.000
601.309	21803.529
601.438	21841.412
601.566	21834.549
601.694	21891.451
601.822	22093.431
601.950	21841.882
602.078	22011.235
602.206	22026.392
602.334	22079.647
602.463	22005.020
602.591	22178.804
602.719	22064.451
602.847	22235.255
602.975	22130.353
603.103	22100.412
603.231	22154.765
603.359	22070.098
603.488	22124.451
603.616	22143.824
603.744	22171.941
603.872	22150.980
604.000	22111.667
604.128	22074.961
604.256	22098.176
604.384	22174.000
604.513	22184.608
604.641	22160.941
604.769	22245.784
604.897	22080.098
605.025	22073.784
605.153	22145.902
605.281	22180.196
605.409	22104.137
605.538	22120.510
605.666	22121.471
605.794	22106.882
605.922	22075.078
606.050	22052.686
606.178	22148.000
606.306	22099.686
606.434	22172.275
606.563	22216.078
606.691	22191.686
606.819	22193.353
606.947	22143.157
607.075	22152.941
607.203	22111.647
607.331	22058.157
607.459	22017.078
607.588	22056.020
607.716	22068.706
607.844	22049.373
607.972	22074.431
608.100	21985.922
608.228	22018.667
608.356	22047.863
608.484	22132.863
608.613	22025.431
608.741	21966.529
608.869	21934.804
608.997	22002.745
609.125	22017.392
609.253	21942.176
609.381	21842.804
609.509	21819.490
609.638	21870.078
609.766	21873.333
609.894	21891.647
610.022	21793.020
610.150	21839.451
610.278	21720.431
610.406	21719.784
610.534	21748.569
610.663	21689.706
610.791	21833.157
610.919	21596.275
611.047	21617.137
611.175	21539.333
611.303	21582.431
611.431	21551.039
611.559	21564.059
611.688	21541.804
611.816	21530.843
611.944	21509.020
612.072	21550.471
612.200	21565.373
612.328	21626.863
612.456	21530.314
612.584	21740.529
612.713	21505.137
612.841	21603.882
612.969	21437.039
613.097	21476.824
613.225	21483.569
613.353	21549.784
613.481	21559.490
613.609	21565.000
613.738	21568.216
613.866	21623.961
613.994	21602.059
614.122	21583.569
614.250	21479.471
614.378	21520.569
614.506	21542.471
614.634	21622.451
614.763	21590.176
614.891	21592.608
615.019	21620.529
615.147	21682.098
615.275	21609.098
615.403	21638.275
615.531	21585.882
615.659	21550.059
615.788	21586.255
615.916	21678.431
616.044	21559.725
616.172	21673.451
616.300	21550.549
616.428	21650.627
616.556	21614.059
616.684	21618.373
616.813	21558.157
616.941	21571.294
617.069	21555.157
617.197	21807.196
617.325	21671.471
617.453	21689.647
617.581	21702.510
617.709	21635.667
617.838	21683.843
617.966	21745.549
618.094	21700.627
618.222	21732.765
618.350	21935.059
618.478	21808.725
618.606	21953.275
618.734	21950.902
618.863	21966.941
618.991	21898.725
619.119	21991.078
619.247	22024.706
619.375	21979.020
619.503	22084.588
619.631	22257.196
619.759	22094.314
619.888	22119.353
620.016	22271.314
620.144	22258.569
620.272	22114.804
620.400	22322.529
620.528	22324.569
620.656	22448.000
620.784	22366.392
620.913	22422.784
621.041	22447.804
621.169	22473.784
621.297	22425.353
621.425	22459.471
621.553	22522.294
621.681	22593.451
621.809	22561.627
621.938	22580.922
622.066	22650.000
622.194	22653.020
622.322	22603.118
622.450	22717.706
622.578	22638.059
622.706	22660.745
622.834	22690.843
622.963	22714.608
623.091	22632.706
623.219	22690.373
623.347	22715.451
623.475	22709.608
623.603	22630.118
623.731	22701.000
623.859	22619.137
623.988	22731.176
624.116	22655.980
624.244	22766.451
624.372	22702.745
624.500	22758.941
624.628	22780.529
624.756	22777.137
624.884	22870.647
625.013	22985.941
625.141	22805.431
625.269	22749.647
625.397	22795.412
625.525	22948.098
625.653	22773.118
625.781	22895.020
625.909	22767.529
626.038	22757.373
626.166	22774.490
626.294	22724.706
626.422	22807.510
626.550	22859.647
626.678	22830.980
626.806	22846.471
626.934	22907.608
627.063	22874.941
627.191	22922.000
627.319	22909.314
627.447	22929.765
627.575	22942.392
627.703	22921.431
627.831	22991.686
627.959	22915.627
628.088	23025.745
628.216	22995.863
628.344	22956.882
628.472	22911.471
628.600	22975.000
628.728	22738.176
628.856	22826.980
628.984	22782.608
629.113	22868.275
629.241	22855.333
629.369	22816.882
629.497	22772.373
629.625	22821.725
629.753	22672.431
629.881	22683.235
630.009	22638.902
630.138	22670.137
630.266	22650.706
630.394	22771.569
630.522	22763.059
630.650	22532.686
630.778	22503.000
630.906	22486.980
631.034	22318.471
631.163	22437.902
631.291	22348.510
631.419	22294.863
631.547	22189.333
631.675	22013.255
631.803	22043.804
631.931	22060.216
632.059	22087.294
632.188	21968.020
632.316	21928.686
632.444	22017.941
632.572	21839.196
632.700	21855.902
632.828	21781.549
632.956	21681.882
633.084	21627.843
633.213	21691.922
633.341	21555.804
633.469	21598.059
633.597	21533.863
633.725	21466.059
633.853	21435.078
633.981	21397.118
634.109	21547.588
634.238	21348.157
634.366	21249.451
634.494	21247.196
634.622	21206.667
634.750	21177.588
634.878	21139.529
635.006	21050.373
635.134	21003.980
635.263	21087.529
635.391	20946.235
635.519	20910.765
635.647	20883.000
635.775	20770.098
635.903	20762.216
636.031	20616.373
636.159	20578.078
636.288	20526.098
636.416	20484.451
636.544	20463.176
636.672	20372.922
636.800	20330.745
636.928	20320.902
637.056	20377.686
637.184	20232.118
637.313	20190.961
637.441	20221.529
637.569	20323.333
637.697	20354.843
637.825	20308.667
637.953	20382.157
638.081	20400.627
638.209	20528.961
638.338	20435.529
638.466	20484.039
638.594	20536.510
638.722	20525.176
638.850	20624.431
638.978	20527.667
639.106	20609.137
639.234	20647.529
639.363	20655.118
639.491	20680.941
639.619	20776.294
639.747	20785.608
639.875	20719.745
640.003	20788.667
640.131	20818.392
640.259	20851.627
640.388	20881.431
640.516	20861.078
640.644	20911.725
640.772	20945.451
640.900	20876.078
641.028	20882.333
641.156	20768.431
641.284	20769.667
641.413	20906.020
641.541	20837.490
641.669	20751.765
641.797	20753.706
641.925	20695.529
642.053	20780.686
642.181	20638.137
642.309	20624.353
642.438	20605.196
642.566	20537.314
642.694	20614.608
642.822	20534.157
642.950	20526.863
643.078	20534.647
643.206	20442.373
643.334	20472.314
643.463	20343.275
643.591	20407.510
643.719	20383.961
643.847	20402.431
643.975	20367.980
644.103	20346.569
644.231	20325.627
644.359	20254.843
644.488	20325.922
644.616	20271.157
644.744	20177.020
644.872	20186.804
645.000	20220.588
645.128	20094.333
645.256	20028.804
645.384	20064.431
645.513	20020.157
645.641	20014.412
645.769	19998.176
645.897	19997.392
646.025	20038.098
646.153	19905.235
646.281	19986.235
646.409	19869.902
646.538	19939.667
646.666	19792.490
646.794	19826.314
646.922	19730.059
647.050	19712.373
647.178	19630.137
647.306	19835.275
647.434	19592.137
647.563	19533.490
647.691	19503.961
647.819	19531.471
647.947	19326.706
648.075	19306.216
648.203	19342.784
648.331	19280.843
648.459	19231.314
648.588	19183.882
648.716	19283.529
648.844	19204.569
648.972	19160.627
649.100	19097.588
649.228	19118.157
649.356	19074.216
649.484	19050.765
649.613	19103.333
649.741	19002.078
649.869	18973.216
649.997	18971.569
650.125	18989.314
650.253	18906.471
650.381	18807.000
650.509	18760.176
650.638	18747.451
650.766	18898.745
650.894	18708.882
651.022	18645.176
651.150	18635.078
651.278	18641.098
651.406	18624.235
651.534	18487.902
651.663	18492.843
651.791	18715.608
651.919	18462.137
652.047	18365.843
652.175	18398.059
652.303	18310.529
652.431	18361.314
652.559	18308.941
652.688	18258.588
652.816	18288.471
652.944	18220.157
653.072	18115.980
653.200	18185.961
653.328	18240.137
653.456	18055.824
653.584	18094.373
653.713	18033.647
653.841	18013.431
653.969	17991.471
654.097	17936.745
654.225	17957.824
654.353	17925.176
654.481	17916.235
654.609	17896.765
654.738	17884.451
654.866	17837.412
654.994	17893.294
655.122	17835.765
655.250	17947.608
655.378	17695.451
655.506	17788.373
655.634	17817.078
655.763	17592.431
655.891	17594.804
656.019	17569.765
656.147	17505.569
656.275	17519.961
656.403	17427.216
656.531	17324.392
656.659	17344.157
656.788	17348.725
656.916	17308.745
657.044	17236.431
657.172	17254.412
657.300	17330.569
657.428	17190.176
657.556	17120.353
657.684	17115.686
657.813	17073.863
657.941	16942.529
658.069	16941.647
658.197	16860.176
658.325	16868.647
658.453	16767.196
658.581	16700.373
658.709	16667.353
658.838	16636.961
658.966	16551.608
659.094	16513.706
659.222	16473.235
659.350	16396.706
659.478	16429.843
659.606	16422.902
659.734	16325.098
659.863	16236.549
659.991	16167.961
660.119	16204.412
660.247	16282.882
660.375	16018.451
660.503	15978.314
660.631	16044.902
660.759	15915.745
660.888	15881.098
661.016	15832.392
661.144	15774.216
661.272	15808.922
661.400	15711.196
661.528	15685.451
661.656	15619.627
661.784	15600.451
661.913	15571.902
662.041	15692.000
662.169	15511.941
662.297	15622.255
662.425	15594.882
662.553	15620.431
662.681	15462.922
662.809	15503.294
662.938	15399.412
663.066	15377.020
663.194	15382.765
663.322	15347.216
663.450	15317.902
663.578	15408.765
663.706	15442.216
663.834	15311.922
663.963	15281.667
664.091	15328.373
664.219	15320.078
664.347	15361.765
664.475	15378.137
664.603	15243.608
664.731	15226.235
664.859	15204.510
664.988	15238.588
665.116	15164.745
665.244	15174.549
665.372	15144.980
665.500	15216.294
665.628	15086.176
665.756	15127.000
665.884	15124.176
666.013	15057.725
666.141	15076.333
666.269	15066.765
666.397	15059.392
666.525	15042.373
666.653	15072.824
666.781	15132.196
666.909	15105.059
667.038	15154.549
667.166	15085.255
667.294	15088.471
667.422	15108.902
667.550	15098.765
667.678	15063.725
667.806	14978.333
667.934	14957.961
668.063	14993.706
668.191	14992.039
668.319	15103.902
668.447	15024.216
668.575	15048.353
668.703	15020.961
668.831	15040.745
668.959	15040.510
669.088	15152.039
669.216	14943.608
669.344	14986.059
669.472	14938.275
669.600	14961.824
669.728	14962.627
669.856	14864.294
669.984	14858.980
670.113	14778.549
670.241	14784.902
670.369	14745.255
670.497	14742.588
670.625	14658.922
670.753	14912.765
670.881	14875.824
671.009	14722.275
671.138	14721.804
671.266	14631.784
671.394	14712.549
671.522	14663.098
671.650	14517.059
671.778	14531.020
671.906	14523.667
672.034	14578.000
672.163	14499.569
672.291	14443.804
672.419	14557.412
672.547	14430.333
672.675	14355.471
672.803	14388.863
672.931	14333.353
673.059	14315.902
673.188	14275.118
673.316	14208.647
673.444	14229.608
673.572	14369.804
673.700	14149.647
673.828	14190.961
673.956	14092.294
674.084	14083.314
674.213	14102.686
674.341	13998.098
674.469	13964.098
674.597	13910.078
674.725	13994.941
674.853	13839.412
674.981	13978.745
675.109	13827.941
675.238	13807.686
675.366	13751.804
675.494	13710.843
675.622	13803.510
675.750	13831.686
675.878	13818.549
676.006	13724.294
676.134	13758.078
676.263	13707.118
676.391	13780.255
676.519	13685.980
676.647	13707.059
676.775	13633.745
676.903	13778.510
677.031	13587.549
677.159	13642.373
677.288	13820.725
677.416	13585.667
677.544	13570.765
677.672	13540.137
677.800	13528.824
677.928	13521.569
678.056	13586.216
678.184	13482.235
678.313	13660.784
678.441	13427.784
678.569	13635.000
678.697	13469.392
678.825	13472.569
678.953	13474.137
679.081	13473.412
679.209	13458.431
679.338	13523.843
679.466	13407.745
679.594	13472.431
679.722	13491.647
679.850	13423.529
679.978	13476.549
680.106	13439.392
680.234	13439.725
680.363	13486.588
680.491	13415.255
680.619	13669.176
680.747	13550.451
680.875	13499.314
681.003	13525.725
681.131	13558.275
681.259	13525.000
681.388	13545.020
681.516	13629.275
681.644	13524.627
681.772	13738.490
681.900	13545.275
682.028	13620.922
682.156	13623.686
682.284	13677.588
682.413	13756.686
682.541	13652.784
682.669	13663.490
682.797	13738.353
682.925	13781.118
683.053	13855.490
683.181	13862.098
683.309	13887.333
683.438	13914.098
683.566	13972.235
683.694	14041.686
683.822	13983.745
683.950	14040.294
684.078	14001.157
684.206	14142.529
684.334	14142.098
684.463	14224.196
684.591	14076.353
684.719	14073.294
684.847	14116.392
684.975	14158.118
685.103	14161.275
685.231	14258.804
685.359	14172.412
685.488	14197.922
685.616	14253.255
685.744	14250.490
685.872	14261.333
686.000	14330.235
686.128	14270.392
686.256	14286.765
686.384	14343.922
686.513	14276.059
686.641	14394.529
686.769	14393.216
686.897	14423.216
687.025	14317.196
687.153	14458.882
687.281	14341.745
687.409	14317.020
687.538	14345.804
687.666	14360.980
687.794	14366.255
687.922	14317.863
688.050	14319.608
688.178	14423.980
688.306	14420.608
688.434	14312.098
688.563	14295.294
688.691	14327.804
688.819	14458.333
688.947	14411.843
689.075	14373.882
689.203	14402.000
689.331	14368.275
689.459	14353.569
689.588	14387.608
689.716	14416.275
689.844	14447.333
689.972	14402.961
690.100	14385.471
690.228	14496.510
690.356	14472.353
690.484	14554.275
690.613	14449.353
690.741	14495.941
690.869	14494.627
690.997	14518.294
691.125	14785.098
691.253	14706.784
691.381	14557.059
691.509	14536.373
691.638	14624.137
691.766	14616.569
691.894	14684.255
692.022	14736.686
692.150	14704.157
692.278	14671.490
692.406	14735.627
692.534	14746.922
692.663	14840.039
692.791	14876.020
692.919	14904.078
693.047	14894.529
693.175	14931.255
693.303	15033.804
693.431	14933.255
693.559	15035.059
693.688	15136.588
693.816	15050.118
693.944	15096.647
694.072	15073.843
694.200	15127.039
694.328	15177.686
694.456	15251.745
694.584	15196.216
694.713	15286.471
694.841	15298.686
694.969	15290.686
695.097	15508.863
695.225	15335.471
695.353	15488.745
695.481	15454.353
695.609	15540.255
695.738	15439.020
695.866	15503.784
695.994	15555.020
696.122	15730.333
696.250	15715.588
696.378	15716.255
696.506	15705.784
696.634	15758.314
696.763	15789.686
696.891	15816.863
697.019	15836.275
697.147	15980.706
697.275	15941.157
697.403	15969.216
697.531	16108.510
697.659	16091.137
697.788	16317.157
697.916	16195.882
698.044	16275.020
698.172	16303.882
698.300	16401.451
698.428	16381.686
698.556	16442.235
698.684	16528.000
698.813	16582.490
698.941	16618.216
699.069	16614.353
699.197	16610.392
699.325	16607.020
699.453	16599.196
699.581	16818.922
699.709	16682.804
699.838	16738.804
699.966	16793.588
700.094	16924.196
700.222	17047.216
700.350	17014.137
700.478	17024.353
700.606	17036.039
700.734	17034.784
700.863	16973.863
700.991	17031.373
701.119	17093.294
701.247	17049.020
701.375	17201.059
701.503	17145.137
701.631	17129.216
701.759	17221.176
701.888	17275.059
702.016	17397.843
702.144	17210.314
702.272	17345.451
702.400	17343.431
702.528	17440.020
702.656	17529.980
702.784	17474.137
702.913	17573.176
703.041	17553.863
703.169	17691.569
703.297	17655.961
703.425	17623.745
703.553	17705.843
703.681	17667.902
703.809	17671.137
703.938	17645.804
704.066	17820.529
704.194	17679.843
704.322	17675.078
704.450	17703.059
704.578	17717.137
704.706	17805.118
704.834	17812.176
704.963	17762.059
705.091	17726.392
705.219	17856.941
705.347	17811.882
705.475	17804.353
705.603	17855.216
705.731	17877.451
705.859	17877.157
705.988	17959.510
706.116	17923.373
706.244	17895.569
706.372	18003.392
706.500	17919.118
706.628	18045.431
706.756	18032.490
706.884	18062.549
707.013	18119.863
707.141	18028.941
707.269	18168.216
707.397	18080.588
707.525	18064.490
707.653	18079.137
707.781	18102.706
707.909	18039.549
708.038	18082.784
708.166	18037.784
708.294	18064.098
708.422	18092.098
708.550	18083.020
708.678	18055.941
708.806	18160.882
708.934	18076.588
709.063	18110.588
709.191	18113.706
709.319	18158.588
709.447	18244.784
709.575	18268.039
709.703	18234.059
709.831	18390.510
709.959	18361.725
710.088	18500.000
710.216	18571.863
710.344	18538.235
710.472	18706.471
710.600	18819.196
710.728	18751.922
710.856	18802.176
710.984	18965.039
711.113	18891.725
711.241	19000.882
711.369	19101.098
711.497	19021.392
711.625	19091.098
711.753	19124.118
711.881	19223.059
712.009	19319.608
712.138	19284.020
712.266	19294.725
712.394	19321.275
712.522	19266.882
712.650	19349.588
712.778	19437.765
712.906	19443.765
713.034	19434.294
713.163	19474.804
713.291	19450.510
713.419	19599.118
713.547	19563.882
713.675	19589.706
713.803	19565.843
713.931	19684.000
714.059	19676.471
714.188	19717.941
714.316	19651.922
714.444	19769.196
714.572	19907.647
714.700	19795.647
714.828	19875.529
714.956	19875.157
715.084	19865.333
715.213	19921.471
715.341	19942.745
715.469	19900.882
715.597	19989.980
715.725	19965.216
715.853	20004.549
715.981	20037.471
716.109	20029.627
716.238	20069.314
716.366	20141.510
716.494	20192.118
716.622	20223.235
716.750	20222.020
716.878	20352.569
717.006	20307.314
717.134	20233.627
717.263	20316.765
717.391	20376.549
717.519	20326.373
717.647	20384.608
717.775	20340.333
717.903	20306.157
718.031	20330.569
718.159	20334.098
718.288	20342.431
718.416	20295.373
718.544	20266.020
718.672	20334.529
718.800	20270.765
718.928	20322.510
719.056	20275.314
719.184	20356.157
719.313	20330.000
719.441	20371.353
719.569	20282.078
719.697	20323.804
719.825	20339.098
719.953	20338.569
720.081	20310.431
720.209	20274.412
720.338	20318.529
720.466	20297.686
720.594	20303.176
720.722	20386.882
720.850	20325.608
720.978	20257.961
721.106	20242.882
721.234	20278.176
721.363	20214.843
721.491	20214.392
721.619	20197.098
721.747	20206.922
721.875	20276.078
722.003	20167.588
722.131	20219.255
722.259	20284.804
722.388	20310.490
722.516	20182.686
722.644	20210.353
722.772	20175.725
722.900	20201.647
723.028	20145.216
723.156	20170.392
723.284	20144.882
723.413	20147.353
723.541	20189.706
723.669	20159.667
723.797	20205.255
723.925	20201.333
724.053	20150.216
724.181	20148.902
724.309	20211.353
724.438	20167.922
724.566	20215.725
724.694	20113.843
724.822	20127.627
724.950	20208.902
725.078	20180.843
725.206	20084.824
725.334	20159.824
725.463	20192.412
725.591	20276.686
725.719	20364.275
725.847	20150.549
725.975	20265.137
726.103	20276.314
726.231	20204.451
726.359	20257.059
726.488	20455.863
726.616	20222.275
726.744	20312.608
726.872	20310.706
727.000	20360.196
727.128	20325.961
727.256	20327.255
727.384	20347.667
727.513	20329.137
727.641	20274.941
727.769	20323.196
727.897	20396.529
728.025	20404.235
728.153	20356.627
728.281	20411.647
728.409	20408.157
728.538	20397.882
728.666	20349.843
728.794	20441.314
728.922	20419.529
729.050	20450.529
729.178	20483.863
729.306	20510.667
729.434	20546.196
729.563	20640.333
729.691	20654.490
729.819	20657.333
729.947	20685.588
730.075	20674.980
730.203	20609.686
730.331	20686.765
730.459	20700.373
730.588	20657.235
730.716	20823.059
730.844	20816.176
730.972	20832.647
731.100	20821.314
731.228	20893.373
731.356	20940.235
731.484	20936.118
731.613	21063.275
731.741	21015.314
731.869	20938.294
731.997	21032.333
732.125	21040.882
732.253	21118.000
732.381	21079.157
732.509	21147.294
732.638	21164.137
732.766	21154.294
732.894	21190.235
733.022	21272.510
733.150	21212.078
733.278	21279.431
733.406	21249.373
733.534	21263.235
733.663	21292.765
733.791	21412.353
733.919	21352.000
734.047	21315.078
734.175	21412.157
734.303	21402.157
734.431	21388.980
734.559	21485.706
734.688	21551.039
734.816	21505.941
734.944	21601.961
735.072	21526.216
735.200	21543.922
735.328	21492.667
735.456	21568.078
735.584	21604.059
735.713	21675.647
735.841	21666.922
735.969	21890.980
736.097	21640.392
736.225	21632.784
736.353	21636.235
736.481	21648.059
736.609	21668.843
736.738	21636.118
736.866	21700.824
736.994	21740.157
737.122	21707.588
737.250	21709.569
737.378	21666.294
737.506	21595.882
737.634	21683.020
737.763	21678.706
737.891	21743.137
738.019	21704.725
738.147	21829.235
738.275	21661.353
738.403	21779.490
738.531	21698.490
738.659	21680.412
738.788	21632.784
738.916	21659.412
739.044	21670.431
739.172	21542.490
739.300	21598.784
739.428	21552.863
739.556	21423.333
739.684	21463.922
739.813	21583.922
739.941	21454.941
740.069	21435.627
740.197	21400.510
740.325	21410.941
740.453	21484.196
740.581	21388.118
740.709	21374.431
740.838	21309.725
740.966	21228.196
741.094	21291.353
741.222	21261.843
741.350	21320.216
741.478	21289.549
741.606	21243.020
741.734	21292.922
741.863	21321.569
741.991	21313.529
742.119	21267.235
742.247	21385.980
742.375	21212.118
742.503	21231.608
742.631	21207.529
742.759	21237.333
742.888	21241.569
743.016	21244.059
743.144	21180.020
743.272	21161.196
743.400	21240.529
743.528	21236.373
743.656	21222.431
743.784	21412.706
743.913	21275.549
744.041	21288.078
744.169	21247.725
744.297	21383.020
744.425	21300.490
744.553	21251.039
744.681	21272.373
744.809	21213.627
744.938	21218.961
745.066	21240.059
745.194	21267.627
745.322	21263.627
745.450	21186.412
745.578	21364.118
745.706	21314.235
745.834	21200.294
745.963	21189.471
746.091	21222.196
746.219	21214.137
746.347	21251.412
746.475	21160.941
746.603	21130.020
746.731	21245.569
746.859	21263.471
746.988	21297.392
747.116	21346.275
747.244	21384.176
747.372	21368.490
747.500	21439.510
747.628	21477.451
747.756	21493.882
747.884	21540.451
748.013	21586.353
748.141	21575.863
748.269	21567.353
748.397	21657.765
748.525	21720.824
748.653	21772.549
748.781	21800.725
748.909	21736.882
749.038	21945.275
749.166	21833.804
749.294	21981.529
749.422	21846.627
749.550	21899.784
749.678	21974.451
749.806	22037.922
749.934	22196.373
750.063	22148.471
750.191	22194.745
750.319	22121.157
750.447	22187.078
750.575	22202.627
750.703	22149.020
750.831	22170.647
750.959	22197.843
751.088	22132.078
751.216	22211.216
751.344	22138.373
751.472	22090.765
751.600	22174.863
751.728	22191.314
751.856	22176.863
751.984	22142.059
752.113	22186.431
752.241	22124.627
752.369	22148.765
752.497	22350.863
752.625	22137.412
752.753	22113.471
752.881	22160.627
753.009	22168.000
753.138	22134.294
753.266	22121.922
753.394	22115.627
753.522	22145.824
753.650	22089.000
753.778	22039.843
753.906	22059.078
754.034	22082.882
754.163	22084.353
754.291	22282.647
754.419	22129.451
754.547	22066.647
754.675	22109.020
754.803	22101.137
754.931	22018.490
755.059	22189.392
755.188	22186.353
755.316	22113.196
755.444	22172.765
755.572	22146.529
755.700	22183.020
755.828	22126.000
755.956	22177.490
756.084	22217.510
756.213	22263.333
756.341	22261.235
756.469	22274.510
756.597	22302.706
756.725	22232.353
756.853	22299.235
756.981	22333.824
757.109	22378.863
757.238	22337.039
757.366	22392.882
757.494	22463.549
757.622	22532.412
757.750	22518.882
757.878	22572.157
758.006	22544.706
758.134	22584.373
758.263	22590.686
758.391	22633.627
758.519	22595.725
758.647	22690.765
758.775	22721.510
758.903	22704.000
759.031	22769.882
759.159	22782.235
759.288	22977.922
759.416	22757.608
759.544	22822.647
759.672	22897.627
759.800	22904.373
759.928	22770.039
760.056	22990.882
760.184	22855.647
760.313	22918.137
760.441	22993.471
760.569	23063.255
760.697	23070.824
760.825	23087.255
760.953	23148.510
761.081	23077.373
761.209	23116.216
761.338	23108.176
761.466	23237.510
761.594	23381.235
761.722	23372.627
761.850	23241.255
761.978	23240.176
762.106	23277.863
762.234	23200.314
762.363	23249.118
762.491	23238.647
762.619	23354.961
762.747	23380.549
762.875	23387.588
763.003	23328.451
763.131	23318.647
763.259	23310.392
763.388	23343.294
763.516	23383.333
763.644	23411.373
763.772	23433.216
763.900	23400.235
764.028	23482.451
764.156	23426.255
764.284	23417.549
764.413	23429.843
764.541	23589.706
764.669	23530.235
764.797	23605.510
764.925	23570.725
765.053	23402.510
765.181	23499.373
765.309	23541.647
765.438	23518.235
765.566	23555.824
765.694	23492.353
765.822	23719.392
765.950	23509.275
766.078	23611.941
766.206	23558.235
766.334	23562.255
766.463	23546.529
766.591	23550.980
766.719	23613.804
766.847	23643.412
766.975	23602.098
767.103	23526.196
767.231	23560.471
767.359	23558.373
767.488	23492.353
767.616	23509.863
767.744	23564.725
767.872	23605.451
768.000	23497.725
768.128	23606.157
768.256	23568.373
768.384	23523.157
768.513	23521.275
768.641	23481.333
768.769	23554.314
768.897	23560.196
769.025	23675.137
769.153	23480.608
769.281	23597.647
769.409	23492.157
769.538	23513.824
769.666	23663.549
769.794	23555.176
769.922	23670.471
770.050	23614.196
770.178	23598.294
770.306	23641.902
770.434	23560.000
770.563	23565.078
770.691	23630.843
770.819	23503.569
770.947	23539.804
771.075	23492.157
771.203	23415.275
771.331	23579.216
771.459	23453.843
771.588	23419.333
771.716	23417.294
771.844	23491.824
771.972	23514.922
772.100	23446.922
772.228	23431.333
772.356	23506.588
772.484	23382.039
772.613	23501.922
772.741	23362.451
772.869	23487.745
772.997	23433.765
773.125	23480.569
773.253	23475.275
773.381	23313.294
773.509	23372.569
773.638	23357.392
773.766	23250.275
773.894	23207.176
774.022	23252.941
774.150	23154.804
774.278	23176.882
774.406	23164.627
774.534	23229.882
774.663	23168.667
774.791	23106.627
774.919	23182.804
775.047	23139.569
775.175	23113.922
775.303	23100.686
775.431	22986.490
775.559	22993.078
775.688	23000.216
775.816	23074.843
775.944	22941.020
776.072	23074.176
776.200	23016.510
776.328	22970.863
776.456	22967.216
776.584	22976.196
776.713	22998.588
776.841	22929.980
776.969	23034.098
777.097	22981.980
777.225	23006.824
777.353	22922.706
777.481	22916.745
777.609	22871.549
777.738	22865.373
777.866	22825.706
777.994	22826.804
778.122	22919.765
778.250	22942.608
778.378	22866.902
778.506	22826.235
778.634	22804.725
778.763	23014.098
778.891	22826.941
779.019	22908.314
779.147	22818.510
779.275	22907.471
779.403	22893.000
779.531	22845.333
779.659	22789.529
779.788	22762.196
779.916	22815.549
780.044	22741.471
780.172	22793.412
780.300	22696.137
780.428	22745.235
780.556	22753.353
780.684	22629.627
780.813	22614.569
780.941	22581.882
781.069	22515.686
781.197	22576.314
781.325	22695.137
781.453	22457.627
781.581	22491.255
781.709	22450.588
781.838	22401.216
781.966	22320.078
782.094	22327.941
782.222	22378.059
782.350	22255.412
782.478	22281.725
782.606	22246.118
782.734	22262.902
782.863	22202.294
782.991	22108.588
783.119	22169.529
783.247	22107.431
783.375	22124.471
783.503	22047.941
783.631	22113.098
783.759	21987.824
783.888	21974.471
784.016	21977.020
784.144	21871.333
784.272	21835.353
784.400	21857.725
784.528	21831.510
784.656	21861.843
784.784	21732.353
784.913	21630.843
785.041	21679.412
785.169	21536.882
785.297	21579.294
785.425	21502.843
785.553	21514.314
785.681	21508.353
785.809	21652.176
785.938	21465.549
786.066	21481.980
786.194	21362.235
786.322	21328.431
786.450	21313.804
786.578	21270.490
786.706	21358.059
786.834	21309.510
786.963	21220.608
787.091	21266.647
787.219	21147.275
787.347	21170.275
787.475	21136.118
787.603	21125.157
787.731	21105.412
787.859	21065.902
787.988	21225.510
788.116	21217.176
788.244	21142.510
788.372	21089.667
788.500	21130.804
788.628	21017.902
788.756	20989.294
788.884	20963.745
789.013	20908.843
789.141	20823.941
789.269	20776.216
789.397	20754.824
789.525	20813.784
789.653	20756.137
789.781	20664.765
789.909	20597.314
790.038	20603.000
790.166	20542.922
790.294	20474.667
790.422	20456.980
790.550	20351.078
790.678	20338.216
790.806	20268.412
790.934	20305.235
791.063	20203.412
791.191	20193.059
791.319	20113.039
791.447	20113.490
791.575	20064.588
791.703	20012.020
791.831	20004.412
791.959	19981.706
792.088	19998.667
792.216	19928.608
792.344	19834.020
792.472	19686.314
792.600	19787.255
792.728	19712.902
792.856	19798.333
792.984	19626.961
793.113	19713.314
793.241	19656.373
793.369	19621.941
793.497	19560.176
793.625	19624.000
793.753	19601.333
793.881	19420.549
794.009	19511.490
794.138	19337.137
794.266	19376.647
794.394	19340.608
794.522	19359.686
794.650	19304.843
794.778	19328.275
794.906	19205.961
795.034	19253.843
795.163	19159.725
795.291	19169.039
795.419	19295.039
795.547	19127.706
795.675	19180.039
795.803	19193.216
795.931	19082.471
796.059	19021.824
796.188	19093.843
796.316	18991.020
796.444	19085.667
796.572	19026.098
796.700	19053.922
796.828	18972.980
796.956	18907.059
797.084	18835.922
797.213	18778.137
797.341	18708.000
797.469	18730.392
797.597	18715.882
797.725	18617.118
797.853	18596.471
797.981	18548.745
798.109	18507.098
798.238	18370.667
798.366	18423.745
798.494	18322.902
798.622	18367.725
798.750	18387.667
798.878	18281.824
799.006	18222.627
799.134	18176.706
799.263	18149.824
799.391	18047.706
799.519	18025.588
799.647	17994.961
799.775	18025.000
799.903	17916.569
800.031	17887.431
800.159	17871.745
800.288	17804.784
800.416	17765.863
800.544	17751.784
800.672	17594.275
800.800	17615.118
800.928	17576.863
801.056	17589.549
801.184	17582.824
801.313	17536.529
801.441	17423.078
801.569	17434.353
801.697	17384.686
801.825	17431.627
801.953	17413.569
802.081	17421.471
802.209	17345.784
802.338	17403.255
802.466	17355.196
802.594	17338.824
802.722	17235.569
802.850	17271.529
802.978	17261.353
803.106	17231.098
803.234	17279.980
803.363	17213.608
803.491	17134.333
803.619	17035.804
803.747	17054.255
803.875	17002.275
804.003	17003.824
804.131	17023.902
804.259	16994.039
804.388	16989.020
804.516	16952.745
804.644	16987.706
804.772	16908.078
804.900	16888.824
805.028	16894.039
805.156	16859.275
805.284	16819.196
805.413	16885.412
805.541	16885.824
805.669	16809.902
805.797	16853.059
805.925	16715.431
806.053	16635.255
806.181	16750.314
806.309	16585.725
806.438	16612.686
806.566	16661.392
806.694	16582.647
806.822	16543.490
806.950	16599.333
807.078	16466.667
807.206	16518.902
807.334	16360.941
807.463	16388.039
807.591	16364.647
807.719	16373.863
807.847	16280.627
807.975	16263.608
808.103	16195.373
808.231	16238.314
808.359	16170.667
808.488	16099.686
808.616	16038.412
808.744	16039.255
808.872	15974.745
809.000	15954.765
809.128	16038.588
809.256	15880.902
809.384	15842.176
809.513	15785.471
809.641	15733.333
809.769	15756.314
809.897	15701.471
810.025	15701.255
810.153	15676.941
810.281	15710.824
810.409	15640.255
810.538	15568.784
810.666	15542.373
810.794	15568.627
810.922	15583.725
811.050	15551.275
811.178	15467.255
811.306	15494.863
811.434	15483.745
811.563	15455.510
811.691	15501.431
811.819	15428.235
811.947	15392.333
812.075	15348.843
812.203	15409.118
812.331	15370.510
812.459	15358.765
812.588	15269.647
812.716	15299.098
812.844	15217.294
812.972	15204.647
813.100	15125.059
813.228	15103.039
813.356	15073.235
813.484	15033.020
813.613	15063.314
813.741	14959.882
813.869	14114.294
