spectrometer_90_100nm_einzel_at_650.00nm_cut_at_1184.50Y_01.dat
02.05.2022
11:39:00
cut middle at Y: 1184.50
top cursor: 1210 down cursor: 1159 mean of: 51 lines , 2560 datapoints
wavelength(nm)	intensity[arb. units]
485.997	6271.216
486.125	5719.608
486.253	5601.922
486.381	5589.804
486.510	5608.137
486.638	5702.412
486.766	5687.314
486.894	5728.863
487.022	5765.451
487.150	5753.294
487.278	5805.961
487.406	5782.608
487.535	5841.294
487.663	5883.588
487.791	5868.431
487.919	5922.647
488.047	5911.059
488.175	5950.000
488.303	5959.412
488.431	5970.235
488.560	5995.412
488.688	6055.843
488.816	6033.627
488.944	6103.804
489.072	6106.765
489.200	6123.431
489.328	6171.078
489.456	6175.804
489.585	6158.490
489.713	6152.804
489.841	6151.569
489.969	6156.118
490.097	6163.627
490.225	6160.882
490.353	6245.980
490.481	6203.569
490.610	6229.686
490.738	6218.647
490.866	6319.333
490.994	6216.980
491.122	6280.353
491.250	6241.000
491.378	6244.588
491.506	6330.137
491.635	6288.490
491.763	6295.490
491.891	6263.412
492.019	6349.373
492.147	6303.412
492.275	6279.431
492.403	6266.824
492.531	6450.118
492.660	6363.765
492.788	6372.725
492.916	6386.373
493.044	6345.863
493.172	6409.784
493.300	6389.176
493.428	6398.804
493.556	6434.412
493.685	6480.255
493.813	6506.804
493.941	6523.569
494.069	6553.137
494.197	6563.333
494.325	6599.686
494.453	6753.333
494.581	6653.431
494.710	6697.647
494.838	6709.941
494.966	6796.176
495.094	6771.059
495.222	6850.882
495.350	6839.725
495.478	6862.804
495.606	6901.000
495.735	6934.294
495.863	6940.294
495.991	6936.490
496.119	6979.667
496.247	7033.608
496.375	6981.314
496.503	7000.510
496.631	7007.431
496.760	7015.745
496.888	7035.412
497.016	7018.608
497.144	7045.863
497.272	7016.275
497.400	7038.490
497.528	7018.216
497.656	7038.294
497.785	6980.196
497.913	6979.529
498.041	7006.980
498.169	7036.020
498.297	6990.000
498.425	7137.608
498.553	7027.275
498.681	7016.020
498.810	7085.059
498.938	7030.627
499.066	7022.922
499.194	7111.588
499.322	7029.216
499.450	7002.157
499.578	7013.431
499.706	7053.333
499.835	7092.137
499.963	7091.745
500.091	7132.549
500.219	7112.078
500.347	7137.118
500.475	7137.745
500.603	7180.529
500.731	7202.216
500.860	7192.314
500.988	7247.098
501.116	7234.510
501.244	7285.098
501.372	7346.922
501.500	7331.510
501.628	7369.118
501.756	7371.373
501.885	7441.863
502.013	7403.020
502.141	7429.490
502.269	7429.824
502.397	7546.922
502.525	7507.902
502.653	7584.000
502.781	7537.294
502.910	7582.922
503.038	7645.314
503.166	7613.745
503.294	7644.922
503.422	7649.255
503.550	7630.196
503.678	7671.569
503.806	7687.510
503.935	7693.235
504.063	7720.549
504.191	7747.255
504.319	7715.922
504.447	7685.902
504.575	7712.235
504.703	7728.804
504.831	7643.549
504.960	7633.784
505.088	7672.490
505.216	7718.882
505.344	7818.510
505.472	7732.765
505.600	7692.843
505.728	7803.490
505.856	7750.608
505.985	7782.196
506.113	7806.333
506.241	7820.647
506.369	7782.333
506.497	7790.863
506.625	7852.706
506.753	7844.078
506.881	7913.098
507.010	7866.980
507.138	7872.510
507.266	7978.157
507.394	7904.510
507.522	8007.098
507.650	7988.980
507.778	8005.510
507.906	8078.549
508.035	8045.745
508.163	8083.667
508.291	8113.784
508.419	8167.824
508.547	8194.510
508.675	8228.255
508.803	8140.843
508.931	8238.608
509.060	8206.686
509.188	8227.137
509.316	8241.392
509.444	8255.333
509.572	8399.863
509.700	8292.078
509.828	8352.471
509.956	8346.020
510.085	8312.196
510.213	8326.196
510.341	8279.333
510.469	8379.039
510.597	8378.216
510.725	8363.863
510.853	8442.078
510.981	8444.549
511.110	8437.608
511.238	8431.000
511.366	8470.314
511.494	8442.882
511.622	8429.373
511.750	8477.471
511.878	8488.608
512.006	8468.804
512.135	8494.000
512.263	8510.392
512.391	8526.725
512.519	8504.157
512.647	8491.333
512.775	8508.667
512.903	8546.941
513.031	8564.078
513.160	8553.020
513.288	8621.000
513.416	8534.176
513.544	8563.686
513.672	8547.765
513.800	8559.804
513.928	8570.098
514.056	8643.294
514.185	8591.157
514.313	8537.078
514.441	8640.706
514.569	8602.588
514.697	8587.176
514.825	8551.059
514.953	8577.373
515.081	8521.824
515.210	8577.020
515.338	8633.196
515.466	8528.039
515.594	8534.490
515.722	8530.686
515.850	8548.725
515.978	8474.569
516.106	8491.216
516.235	8480.824
516.363	8469.078
516.491	8501.647
516.619	8507.471
516.747	8586.843
516.875	8525.569
517.003	8496.725
517.131	8574.196
517.260	8536.392
517.388	8590.451
517.516	8552.588
517.644	8614.686
517.772	8719.863
517.900	8669.725
518.028	8698.020
518.156	8734.353
518.284	8703.843
518.413	8722.608
518.541	8829.059
518.669	8779.588
518.797	8810.373
518.925	8836.588
519.053	8888.824
519.181	8886.216
519.309	8911.255
519.438	8966.137
519.566	9001.000
519.694	8951.451
519.822	9062.490
519.950	9079.216
520.078	9065.078
520.206	9150.843
520.334	9171.039
520.463	9109.706
520.591	9141.686
520.719	9151.627
520.847	9206.824
520.975	9146.451
521.103	9230.784
521.231	9159.765
521.359	9325.706
521.488	9161.137
521.616	9235.647
521.744	9124.569
521.872	9225.255
522.000	9131.373
522.128	9095.667
522.256	9087.294
522.384	9107.157
522.513	9104.059
522.641	9080.392
522.769	9124.745
522.897	9094.196
523.025	9060.000
523.153	9011.843
523.281	9061.059
523.409	9005.451
523.538	9024.000
523.666	8994.039
523.794	9024.941
523.922	9002.667
524.050	8996.824
524.178	8970.627
524.306	9014.314
524.434	9060.745
524.563	9058.039
524.691	9170.020
524.819	9024.373
524.947	9051.078
525.075	9076.824
525.203	9085.686
525.331	9141.157
525.459	9202.059
525.588	9193.922
525.716	9267.980
525.844	9267.843
525.972	9303.529
526.100	9297.314
526.228	9356.725
526.356	9351.569
526.484	9448.941
526.613	9413.569
526.741	9525.588
526.869	9524.667
526.997	9579.549
527.125	9579.686
527.253	9539.922
527.381	9642.627
527.509	9605.686
527.638	9756.569
527.766	9775.667
527.894	9776.647
528.022	9890.235
528.150	9858.235
528.278	9976.235
528.406	9910.784
528.534	9898.255
528.663	9890.176
528.791	10010.627
528.919	9965.569
529.047	10100.843
529.175	9965.196
529.303	9981.255
529.431	9931.196
529.559	10037.980
529.688	9965.412
529.816	10041.255
529.944	10091.255
530.072	10054.176
530.200	10061.667
530.328	10028.686
530.456	10093.275
530.584	10054.078
530.713	10093.804
530.841	10108.647
530.969	10094.706
531.097	10101.098
531.225	10098.824
531.353	10190.706
531.481	10085.294
531.609	10230.020
531.738	10070.569
531.866	10200.824
531.994	10171.529
532.122	10259.255
532.250	10156.510
532.378	10093.941
532.506	10096.216
532.634	10094.353
532.763	10034.706
532.891	10069.471
533.019	10087.922
533.147	10032.627
533.275	10031.922
533.403	10123.784
533.531	10093.059
533.659	10079.608
533.788	10120.176
533.916	10047.157
534.044	10096.392
534.172	10135.824
534.300	10114.588
534.428	10082.784
534.556	10274.373
534.684	10136.902
534.813	10140.392
534.941	10040.157
535.069	10104.275
535.197	10068.941
535.325	10099.275
535.453	10096.098
535.581	10151.098
535.709	10066.745
535.838	10103.490
535.966	10096.118
536.094	10157.333
536.222	10162.804
536.350	10143.510
536.478	10134.059
536.606	10187.765
536.734	10175.373
536.863	10188.588
536.991	10229.235
537.119	10239.216
537.247	10195.235
537.375	10352.078
537.503	10185.765
537.631	10214.353
537.759	10232.804
537.888	10206.039
538.016	10410.020
538.144	10328.196
538.272	10251.529
538.400	10305.255
538.528	10242.157
538.656	10343.784
538.784	10305.941
538.913	10438.804
539.041	10361.725
539.169	10364.431
539.297	10399.569
539.425	10465.235
539.553	10452.333
539.681	10534.039
539.809	10530.725
539.938	10553.706
540.066	10530.588
540.194	10571.765
540.322	10696.275
540.450	10722.451
540.578	10618.490
540.706	10710.431
540.834	10730.196
540.963	10856.275
541.091	10796.412
541.219	10821.000
541.347	10886.471
541.475	10846.157
541.603	10846.235
541.731	10882.137
541.859	10828.020
541.988	10890.294
542.116	11086.098
542.244	10970.608
542.372	11100.176
542.500	10955.824
542.628	11060.961
542.756	11011.216
542.884	10972.804
543.013	11001.431
543.141	11053.863
543.269	11012.725
543.397	10986.980
543.525	11008.902
543.653	11093.784
543.781	10984.510
543.909	10967.157
544.038	11067.725
544.166	11070.333
544.294	11127.216
544.422	10932.451
544.550	10996.196
544.678	11043.980
544.806	10963.510
544.934	10955.902
545.063	10962.118
545.191	11103.333
545.319	10947.980
545.447	10868.314
545.575	10890.490
545.703	10962.098
545.831	10934.353
545.959	10850.039
546.088	10904.941
546.216	10853.941
546.344	10883.765
546.472	11074.941
546.600	10880.137
546.728	10937.333
546.856	10892.196
546.984	10903.980
547.113	11021.922
547.241	10995.490
547.369	11069.922
547.497	11031.118
547.625	11006.941
547.753	11004.902
547.881	10958.275
548.009	10953.686
548.138	10945.608
548.266	10897.490
548.394	11011.686
548.522	10845.804
548.650	10998.922
548.778	10877.431
548.906	10862.922
549.034	10868.235
549.163	10794.314
549.291	10749.706
549.419	10832.000
549.547	11053.588
549.675	10936.549
549.803	11008.020
549.931	11050.961
550.059	11128.451
550.188	11178.216
550.316	11235.216
550.444	11322.902
550.572	11331.961
550.700	11432.412
550.828	11459.412
550.956	11487.000
551.084	11605.471
551.213	11545.529
551.341	11684.235
551.469	11668.627
551.597	11680.647
551.725	11727.961
551.853	11707.745
551.981	11745.235
552.109	11707.392
552.238	11775.039
552.366	11762.843
552.494	11749.863
552.622	11764.667
552.750	11839.686
552.878	11778.137
553.006	11836.667
553.134	11842.627
553.263	11823.863
553.391	11826.569
553.519	12024.059
553.647	11870.725
553.775	11842.392
553.903	12008.902
554.031	11947.176
554.159	11891.529
554.288	11961.843
554.416	11950.294
554.544	11987.451
554.672	11934.118
554.800	11984.647
554.928	11939.314
555.056	11891.020
555.184	11935.333
555.313	11962.333
555.441	11913.235
555.569	11953.255
555.697	12000.725
555.825	11966.588
555.953	11996.627
556.081	11946.373
556.209	11995.647
556.338	12033.255
556.466	12124.196
556.594	11965.118
556.722	12076.471
556.850	12110.549
556.978	11949.471
557.106	12031.784
557.234	12011.902
557.363	12083.529
557.491	12092.294
557.619	12092.569
557.747	12124.510
557.875	12042.745
558.003	12114.373
558.131	12133.176
558.259	12171.706
558.388	12159.392
558.516	12226.392
558.644	12166.196
558.772	12252.667
558.900	12159.392
559.028	12264.176
559.156	12268.804
559.284	12250.059
559.413	12241.765
559.541	12328.255
559.669	12325.725
559.797	12389.118
559.925	12349.667
560.053	12445.725
560.181	12404.569
560.309	12454.627
560.438	12459.882
560.566	12420.275
560.694	12418.137
560.822	12609.765
560.950	12472.549
561.078	12461.784
561.206	12604.922
561.334	12461.529
561.463	12452.549
561.591	12551.333
561.719	12535.843
561.847	12538.608
561.975	12460.471
562.103	12538.902
562.231	12527.020
562.359	12435.196
562.488	12559.078
562.616	12521.647
562.744	12554.941
562.872	12585.216
563.000	12500.667
563.128	12534.765
563.256	12526.098
563.384	12663.431
563.513	12535.765
563.641	12489.373
563.769	12570.314
563.897	12525.549
564.025	12516.039
564.153	12531.922
564.281	12610.588
564.409	12559.059
564.538	12579.078
564.666	12580.039
564.794	12638.451
564.922	12585.471
565.050	12699.588
565.178	12644.431
565.306	12666.686
565.434	12720.392
565.563	12900.706
565.691	12764.137
565.819	12940.216
565.947	12742.020
566.075	12815.627
566.203	12874.471
566.331	12880.961
566.459	13769.784
566.588	12939.294
566.716	12975.510
566.844	13001.431
566.972	13102.647
567.100	13115.647
567.228	13157.157
567.356	13289.647
567.484	13222.941
567.613	13356.922
567.741	13379.902
567.869	13397.137
567.997	13386.902
568.125	13457.549
568.253	13600.510
568.381	13499.588
568.509	13591.137
568.638	13559.765
568.766	13616.706
568.894	13641.373
569.022	13622.765
569.150	13742.353
569.278	13693.706
569.406	13830.431
569.534	13815.137
569.663	13843.824
569.791	13817.804
569.919	13855.431
570.047	13943.294
570.175	13843.706
570.303	13836.647
570.431	13794.804
570.559	13907.431
570.688	14053.627
570.816	13848.431
570.944	13963.176
571.072	13901.608
571.200	13912.078
571.328	13944.608
571.456	13998.373
571.584	13973.941
571.713	13984.608
571.841	13996.765
571.969	14088.824
572.097	14108.843
572.225	13930.941
572.353	13965.353
572.481	13863.843
572.609	13991.745
572.738	13947.745
572.866	13885.725
572.994	13875.706
573.122	13827.922
573.250	13862.353
573.378	13821.588
573.506	13835.118
573.634	13854.373
573.763	13738.490
573.891	13773.431
574.019	13781.588
574.147	13650.137
574.275	13712.608
574.403	13743.137
574.531	13653.157
574.659	13656.549
574.788	13641.000
574.916	13782.255
575.044	13692.686
575.172	13655.098
575.300	13581.176
575.428	13565.196
575.556	13539.941
575.684	13555.373
575.813	13496.235
575.941	13566.000
576.069	13479.784
576.197	13554.471
576.325	13476.176
576.453	13415.216
576.581	13406.020
576.709	13407.529
576.838	13403.569
576.966	13522.588
577.094	13575.843
577.222	13499.588
577.350	13417.902
577.478	13503.549
577.606	13456.843
577.734	13498.039
577.863	13505.294
577.991	13605.549
578.119	13642.804
578.247	13670.000
578.375	13736.059
578.503	13645.255
578.631	13719.039
578.759	13709.412
578.888	13954.804
579.016	13712.824
579.144	13760.039
579.272	13781.059
579.400	13823.353
579.528	13852.745
579.656	13989.490
579.784	13868.588
579.913	13933.451
580.041	14146.863
580.169	14013.765
580.297	14083.255
580.425	14113.275
580.553	14150.765
580.681	14110.431
580.809	14096.569
580.938	14169.157
581.066	14278.804
581.194	14253.412
581.322	14222.608
581.450	14344.961
581.578	14302.098
581.706	14302.843
581.834	14389.569
581.963	14342.863
582.091	14312.490
582.219	14348.765
582.347	14412.373
582.475	14412.804
582.603	14429.647
582.731	14568.882
582.859	14452.235
582.988	14454.569
583.116	14534.961
583.244	14528.490
583.372	14556.294
583.500	14570.235
583.628	14624.353
583.756	14654.706
583.884	14661.294
584.013	14695.843
584.141	14661.588
584.269	14716.902
584.397	14732.843
584.525	14727.451
584.653	14782.020
584.781	14837.667
584.909	14862.647
585.038	14796.745
585.166	14862.863
585.294	14887.824
585.422	14871.882
585.550	14876.922
585.678	14844.549
585.806	14946.784
585.934	14877.255
586.063	14963.000
586.191	14874.255
586.319	14898.373
586.447	14923.706
586.575	14877.471
586.703	14992.294
586.831	14922.118
586.959	14982.373
587.088	14908.490
587.216	14933.176
587.344	14924.549
587.472	15078.490
587.600	14905.137
587.728	14922.451
587.856	14843.373
587.984	14899.137
588.113	14941.059
588.241	14965.333
588.369	14942.882
588.497	15004.451
588.625	15014.706
588.753	15199.412
588.881	15002.608
589.009	15048.020
589.138	15073.451
589.266	15037.392
589.394	15055.922
589.522	15052.255
589.650	15160.824
589.778	15120.824
589.906	15193.765
590.034	15126.294
590.163	15080.647
590.291	15198.471
590.419	15148.392
590.547	15225.765
590.675	15276.490
590.803	15216.392
590.931	15272.980
591.059	15231.255
591.188	15220.137
591.316	15243.078
591.444	15286.608
591.572	15311.490
591.700	15208.294
591.828	15257.255
591.956	15302.843
592.084	15333.353
592.213	15306.627
592.341	15270.667
592.469	15293.647
592.597	15305.627
592.725	15263.078
592.853	15316.039
592.981	15357.039
593.109	15381.294
593.238	15294.549
593.366	15267.706
593.494	15282.000
593.622	15314.118
593.750	15292.000
593.878	15381.490
594.006	15278.098
594.134	15289.863
594.263	15356.529
594.391	15203.235
594.519	15247.490
594.647	15276.000
594.775	15198.412
594.903	15250.078
595.031	15245.373
595.159	15256.353
595.288	15276.392
595.416	15283.373
595.544	15239.529
595.672	15148.373
595.800	15252.392
595.928	15204.373
596.056	15164.000
596.184	15087.196
596.313	15272.431
596.441	15153.843
596.569	15155.608
596.697	15092.235
596.825	14987.686
596.953	15021.176
597.081	15063.941
597.209	14985.157
597.338	15033.902
597.466	15061.961
597.594	14988.882
597.722	15151.020
597.850	15108.000
597.978	15162.059
598.106	15248.627
598.234	15219.882
598.363	15153.706
598.491	15313.490
598.619	15203.392
598.747	15161.431
598.875	15379.824
599.003	15273.490
599.131	15365.588
599.259	15346.157
599.388	15323.000
599.516	15392.706
599.644	15480.471
599.772	15560.078
599.900	15411.373
600.028	15479.353
600.156	15595.039
600.284	15520.039
600.413	15550.529
600.541	15601.353
600.669	15743.784
600.797	15690.294
600.925	15726.510
601.053	15774.961
601.181	15788.980
601.309	15746.549
601.438	15732.686
601.566	15760.902
601.694	15804.725
601.822	16037.941
601.950	15791.765
602.078	15820.431
602.206	15923.039
602.334	15905.235
602.463	15883.373
602.591	16022.549
602.719	15958.922
602.847	16191.745
602.975	16026.686
603.103	16062.137
603.231	16028.020
603.359	16066.510
603.488	16090.863
603.616	16053.725
603.744	16078.451
603.872	16097.216
604.000	16127.667
604.128	16140.588
604.256	16152.980
604.384	16173.588
604.513	16248.843
604.641	16239.196
604.769	16342.922
604.897	16200.118
605.025	16078.882
605.153	16171.235
605.281	16247.745
605.409	16151.078
605.538	16104.510
605.666	16166.196
605.794	16077.314
605.922	16161.235
606.050	16132.627
606.178	16193.020
606.306	16142.529
606.434	16185.627
606.563	16212.804
606.691	16259.078
606.819	16250.863
606.947	16182.510
607.075	16218.039
607.203	16168.157
607.331	16188.412
607.459	16180.294
607.588	16177.353
607.716	16249.980
607.844	16244.804
607.972	16198.804
608.100	16084.098
608.228	16189.373
608.356	16172.255
608.484	16115.490
608.613	16145.392
608.741	16057.529
608.869	16106.843
608.997	16180.686
609.125	16152.118
609.253	16075.392
609.381	16109.176
609.509	16045.275
609.638	16164.333
609.766	16064.333
609.894	16110.471
610.022	16035.922
610.150	16140.647
610.278	15978.765
610.406	16042.255
610.534	16074.039
610.663	15997.902
610.791	16065.059
610.919	15940.725
611.047	16049.020
611.175	15979.353
611.303	15994.235
611.431	15997.725
611.559	16057.647
611.688	15962.588
611.816	15935.059
611.944	15998.745
612.072	16005.804
612.200	16049.353
612.328	16046.804
612.456	15984.275
612.584	16158.000
612.713	16030.020
612.841	16097.412
612.969	16025.412
613.097	16057.804
613.225	16007.078
613.353	16098.431
613.481	15994.725
613.609	16082.059
613.738	16035.392
613.866	16075.314
613.994	16144.510
614.122	16135.176
614.250	16095.706
614.378	16177.431
614.506	16196.314
614.634	16216.549
614.763	16207.157
614.891	16185.314
615.019	16245.843
615.147	16281.569
615.275	16231.843
615.403	16266.196
615.531	16254.608
615.659	16328.569
615.788	16312.078
615.916	16453.333
616.044	16414.961
616.172	16526.275
616.300	16399.941
616.428	16546.843
616.556	16463.627
616.684	16500.863
616.813	16489.431
616.941	16490.373
617.069	16488.608
617.197	16767.941
617.325	16594.745
617.453	16584.000
617.581	16639.039
617.709	16531.824
617.838	16600.745
617.966	16595.745
618.094	16576.118
618.222	16574.647
618.350	16590.157
618.478	16582.569
618.606	16714.882
618.734	16659.765
618.863	16665.608
618.991	16590.529
619.119	16739.569
619.247	16604.471
619.375	16658.059
619.503	16707.667
619.631	16754.863
619.759	16562.059
619.888	16586.667
620.016	16675.745
620.144	16736.078
620.272	16561.235
620.400	16687.020
620.528	16701.941
620.656	16746.098
620.784	16702.098
620.913	16683.745
621.041	16684.843
621.169	16761.196
621.297	16738.039
621.425	16685.412
621.553	16738.098
621.681	16785.098
621.809	16791.451
621.938	16738.235
622.066	16854.157
622.194	16849.294
622.322	16837.627
622.450	16856.667
622.578	16823.804
622.706	16887.706
622.834	16868.784
622.963	16940.412
623.091	16967.078
623.219	17008.529
623.347	17009.549
623.475	16991.588
623.603	17024.627
623.731	17039.098
623.859	17066.118
623.988	17023.549
624.116	17070.882
624.244	17174.922
624.372	17211.235
624.500	17188.745
624.628	17241.529
624.756	17293.039
624.884	17401.216
625.013	17519.804
625.141	17403.588
625.269	17344.137
625.397	17450.922
625.525	17563.667
625.653	17415.667
625.781	17550.255
625.909	17434.804
626.038	17485.569
626.166	17496.882
626.294	17439.451
626.422	17515.922
626.550	17581.627
626.678	17539.059
626.806	17476.078
626.934	17590.745
627.063	17522.588
627.191	17586.333
627.319	17574.333
627.447	17508.294
627.575	17602.137
627.703	17558.137
627.831	17642.275
627.959	17617.843
628.088	17726.941
628.216	17652.843
628.344	17571.549
628.472	17599.569
628.600	17818.627
628.728	17488.216
628.856	17535.176
628.984	17450.373
629.113	17560.922
629.241	17452.686
629.369	17462.098
629.497	17515.471
629.625	17522.294
629.753	17433.314
629.881	17413.451
630.009	17452.294
630.138	17460.804
630.266	17401.686
630.394	17508.765
630.522	17511.490
630.650	17321.627
630.778	17263.627
630.906	17232.078
631.034	17228.353
631.163	17328.098
631.291	17281.039
631.419	17186.569
631.547	17077.373
631.675	17152.471
631.803	17070.451
631.931	17186.824
632.059	17241.118
632.188	17081.529
632.316	17044.667
632.444	17149.922
632.572	16999.667
632.700	17016.353
632.828	16980.412
632.956	16903.235
633.084	16881.000
633.213	16985.647
633.341	16910.941
633.469	16896.392
633.597	16846.176
633.725	16875.627
633.853	16862.608
633.981	16876.392
634.109	16998.922
634.238	16793.137
634.366	16773.882
634.494	16755.725
634.622	16681.686
634.750	16679.373
634.878	16727.980
635.006	16676.863
635.134	16652.882
635.263	16716.706
635.391	16601.824
635.519	16637.431
635.647	16664.137
635.775	16642.314
635.903	16623.451
636.031	16462.392
636.159	16471.314
636.288	16446.294
636.416	16433.196
636.544	16418.667
636.672	16408.216
636.800	16458.255
636.928	16416.431
637.056	16544.510
637.184	16390.157
637.313	16384.235
637.441	16422.137
637.569	16482.765
637.697	16508.647
637.825	16481.471
637.953	16572.412
638.081	16453.549
638.209	16548.020
638.338	16583.725
638.466	16567.686
638.594	16587.431
638.722	16553.314
638.850	16688.235
638.978	16566.020
639.106	16596.902
639.234	16607.961
639.363	16606.059
639.491	16647.098
639.619	16694.373
639.747	16684.314
639.875	16675.412
640.003	16727.196
640.131	16741.980
640.259	16709.843
640.388	16799.902
640.516	16813.588
640.644	16846.392
640.772	16862.647
640.900	16808.529
641.028	16791.588
641.156	16802.765
641.284	16796.137
641.413	16902.216
641.541	16831.392
641.669	16787.510
641.797	16848.412
641.925	16803.824
642.053	16940.294
642.181	16783.000
642.309	16828.235
642.438	16896.431
642.566	16853.255
642.694	16976.000
642.822	16753.725
642.950	16754.863
643.078	16815.608
643.206	16734.765
643.334	16798.725
643.463	16854.824
643.591	16791.078
643.719	16811.765
643.847	16823.412
643.975	16831.235
644.103	16704.216
644.231	16769.706
644.359	16776.235
644.488	16777.667
644.616	16756.784
644.744	16841.235
644.872	16774.588
645.000	16793.157
645.128	16731.157
645.256	16723.118
645.384	16731.824
645.513	16673.941
645.641	16668.882
645.769	16721.922
645.897	16734.902
646.025	16718.510
646.153	16668.039
646.281	16714.176
646.409	16589.941
646.538	16628.118
646.666	16587.667
646.794	16603.176
646.922	16630.314
647.050	16584.392
647.178	16519.412
647.306	16765.176
647.434	16524.196
647.563	16455.804
647.691	16501.078
647.819	16568.235
647.947	16467.510
648.075	16452.333
648.203	16430.451
648.331	16438.000
648.459	16385.843
648.588	16312.216
648.716	16412.961
648.844	16230.294
648.972	16281.588
649.100	16308.882
649.228	16288.824
649.356	16326.608
649.484	16236.137
649.613	16301.608
649.741	16249.647
649.869	16230.471
649.997	16228.235
650.125	16213.549
650.253	16195.922
650.381	16171.667
650.509	16099.941
650.638	15998.902
650.766	16236.392
650.894	16074.824
651.022	15929.000
651.150	15992.118
651.278	16008.765
651.406	15947.392
651.534	15975.922
651.663	15900.078
651.791	16150.471
651.919	15903.294
652.047	15909.843
652.175	15968.490
652.303	15941.882
652.431	15923.765
652.559	15895.392
652.688	15872.549
652.816	15936.725
652.944	15867.314
653.072	15894.922
653.200	15878.157
653.328	15854.235
653.456	15767.098
653.584	15958.059
653.713	15885.686
653.841	15882.882
653.969	15816.569
654.097	15840.000
654.225	15861.196
654.353	15880.196
654.481	15882.902
654.609	15903.510
654.738	15932.824
654.866	15888.333
654.994	15974.588
655.122	15986.980
655.250	16037.784
655.378	15802.667
655.506	15886.314
655.634	15971.725
655.763	15734.941
655.891	15741.686
656.019	15668.431
656.147	15721.824
656.275	15759.588
656.403	15667.529
656.531	15536.882
656.659	15585.804
656.788	15580.157
656.916	15508.451
657.044	15500.824
657.172	15480.667
657.300	15646.255
657.428	15483.333
657.556	15442.804
657.684	15341.608
657.813	15392.431
657.941	15298.216
658.069	15283.176
658.197	15207.314
658.325	15277.451
658.453	15170.667
658.581	15112.902
658.709	15057.490
658.838	15166.941
658.966	15055.216
659.094	15019.118
659.222	15014.275
659.350	14966.314
659.478	15000.216
659.606	14969.235
659.734	14942.176
659.863	14852.059
659.991	14779.922
660.119	14737.451
660.247	14890.745
660.375	14638.078
660.503	14628.667
660.631	14693.863
660.759	14591.431
660.888	14555.412
661.016	14457.412
661.144	14489.608
661.272	14499.765
661.400	14428.510
661.528	14409.118
661.656	14349.961
661.784	14338.686
661.913	14350.588
662.041	14464.510
662.169	14285.353
662.297	14466.137
662.425	14396.235
662.553	14478.510
662.681	14294.078
662.809	14383.686
662.938	14249.922
663.066	14261.647
663.194	14210.392
663.322	14246.020
663.450	14217.804
663.578	14191.784
663.706	14380.647
663.834	14185.922
663.963	14157.706
664.091	14161.020
664.219	14126.686
664.347	14221.039
664.475	14232.216
664.603	14094.490
664.731	14106.157
664.859	14135.902
664.988	14157.686
665.116	14056.725
665.244	14026.647
665.372	14060.843
665.500	14141.137
665.628	14030.549
665.756	14001.392
665.884	14069.078
666.013	14006.020
666.141	13937.392
666.269	14017.588
666.397	14007.980
666.525	13981.000
666.653	13974.824
666.781	14069.118
666.909	13946.137
667.038	14022.137
667.166	13994.686
667.294	14013.863
667.422	13965.961
667.550	14002.941
667.678	13993.137
667.806	13948.412
667.934	13979.725
668.063	13907.255
668.191	14009.314
668.319	14057.353
668.447	13991.706
668.575	14021.529
668.703	14034.176
668.831	13998.020
668.959	13987.647
669.088	14162.000
669.216	14021.039
669.344	13970.412
669.472	13969.176
669.600	13942.922
669.728	14001.725
669.856	13872.529
669.984	13922.529
670.113	13871.980
670.241	13804.784
670.369	13791.451
670.497	13808.980
670.625	13863.667
670.753	13985.196
670.881	13969.510
671.009	13803.961
671.138	13797.392
671.266	13666.412
671.394	13661.275
671.522	13693.137
671.650	13495.863
671.778	13521.373
671.906	13466.078
672.034	13445.647
672.163	13481.627
672.291	13447.020
672.419	13490.980
672.547	13374.373
672.675	13258.255
672.803	13310.608
672.931	13297.549
673.059	13199.529
673.188	13134.176
673.316	13118.490
673.444	13157.510
673.572	13268.706
673.700	13099.451
673.828	13124.039
673.956	13041.980
674.084	12957.373
674.213	12992.902
674.341	12895.627
674.469	12803.137
674.597	12815.824
674.725	12797.431
674.853	12643.314
674.981	12681.765
675.109	12605.020
675.238	12577.039
675.366	12534.431
675.494	12495.745
675.622	12559.039
675.750	12558.549
675.878	12511.255
676.006	12459.196
676.134	12454.216
676.263	12356.059
676.391	12373.824
676.519	12327.863
676.647	12326.431
676.775	12266.235
676.903	12344.804
677.031	12199.627
677.159	12184.510
677.288	12326.510
677.416	12102.275
677.544	12093.157
677.672	12064.549
677.800	12018.902
677.928	12001.490
678.056	12006.627
678.184	11989.373
678.313	12056.471
678.441	11905.549
678.569	12095.529
678.697	11867.961
678.825	11789.922
678.953	11863.000
679.081	11820.980
679.209	11721.706
679.338	11760.922
679.466	11675.059
679.594	11634.294
679.722	11662.941
679.850	11651.431
679.978	11650.490
680.106	11573.059
680.234	11578.255
680.363	11567.392
680.491	11507.294
680.619	11715.451
680.747	11565.961
680.875	11510.137
681.003	11453.353
681.131	11534.529
681.259	11406.137
681.388	11413.157
681.516	11511.333
681.644	11295.255
681.772	11447.431
681.900	11314.882
682.028	11289.118
682.156	11280.059
682.284	11315.745
682.413	11273.804
682.541	11225.745
682.669	11216.745
682.797	11309.294
682.925	11262.176
683.053	11272.118
683.181	11234.039
683.309	11283.431
683.438	11230.961
683.566	11296.412
683.694	11252.647
683.822	11234.020
683.950	11231.196
684.078	11214.745
684.206	11252.294
684.334	11238.863
684.463	11280.627
684.591	11123.980
684.719	11125.686
684.847	11136.902
684.975	11157.863
685.103	11097.804
685.231	11189.490
685.359	11071.373
685.488	11049.745
685.616	11031.569
685.744	11029.098
685.872	11010.000
686.000	11012.059
686.128	10947.176
686.256	10949.588
686.384	10949.549
686.513	10895.569
686.641	10970.157
686.769	10909.902
686.897	10941.392
687.025	10824.039
687.153	10850.902
687.281	10835.647
687.409	10787.686
687.538	10750.176
687.666	10765.471
687.794	10746.784
687.922	10672.608
688.050	10617.745
688.178	10708.333
688.306	10715.314
688.434	10598.549
688.563	10558.216
688.691	10549.216
688.819	10618.784
688.947	10550.765
689.075	10573.549
689.203	10564.608
689.331	10483.902
689.459	10442.373
689.588	10455.078
689.716	10454.804
689.844	10431.804
689.972	10369.686
690.100	10344.843
690.228	10406.569
690.356	10276.216
690.484	10379.431
690.613	10235.588
690.741	10245.608
690.869	10190.490
690.997	10205.373
691.125	10433.333
691.253	10334.176
691.381	10130.294
691.509	10036.922
691.638	10051.157
691.766	10078.118
691.894	10107.667
692.022	10091.235
692.150	10077.922
692.278	9989.941
692.406	9914.569
692.534	9918.196
692.663	9881.725
692.791	9948.078
692.919	9908.725
693.047	9842.392
693.175	9839.451
693.303	9882.627
693.431	9779.667
693.559	9755.804
693.688	9835.059
693.816	9696.882
693.944	9724.314
694.072	9681.922
694.200	9671.804
694.328	9633.863
694.456	9689.784
694.584	9591.118
694.713	9605.941
694.841	9581.510
694.969	9585.922
695.097	9697.667
695.225	9516.902
695.353	9570.824
695.481	9465.059
695.609	9609.706
695.738	9438.353
695.866	9447.980
695.994	9409.216
696.122	9556.314
696.250	9462.882
696.378	9425.667
696.506	9340.216
696.634	9337.039
696.763	9293.275
696.891	9323.941
697.019	9343.137
697.147	9375.294
697.275	9253.353
697.403	9282.686
697.531	9317.098
697.659	9255.745
697.788	9372.490
697.916	9315.000
698.044	9270.784
698.172	9307.784
698.300	9351.510
698.428	9201.196
698.556	9251.176
698.684	9235.157
698.813	9234.392
698.941	9292.824
699.069	9193.196
699.197	9190.824
699.325	9123.961
699.453	9112.431
699.581	9260.667
699.709	9138.392
699.838	9105.431
699.966	9126.078
700.094	9221.059
700.222	9290.667
700.350	9210.922
700.478	9184.686
700.606	9147.686
700.734	9108.020
700.863	9125.275
700.991	9112.412
701.119	9120.490
701.247	9015.510
701.375	9157.863
701.503	9032.373
701.631	9033.647
701.759	9010.314
701.888	9052.824
702.016	9174.000
702.144	9022.608
702.272	9044.000
702.400	9029.137
702.528	9102.549
702.656	9196.902
702.784	9092.216
702.913	9037.588
703.041	8975.451
703.169	9139.765
703.297	8999.647
703.425	8985.314
703.553	9030.294
703.681	9017.020
703.809	9007.314
703.938	8943.549
704.066	9104.863
704.194	8961.353
704.322	8917.490
704.450	8908.745
704.578	8939.608
704.706	9004.941
704.834	8966.471
704.963	8914.863
705.091	8858.039
705.219	8901.529
705.347	8840.412
705.475	8839.608
705.603	8851.667
705.731	8802.314
705.859	8815.706
705.988	8836.745
706.116	8809.843
706.244	8795.314
706.372	8866.137
706.500	8773.980
706.628	8856.333
706.756	8795.902
706.884	8813.647
707.013	8843.275
707.141	8727.392
707.269	8839.431
707.397	8758.216
707.525	8708.392
707.653	8759.314
707.781	8743.588
707.909	8718.922
708.038	8675.686
708.166	8671.725
708.294	8652.451
708.422	8643.745
708.550	8618.706
708.678	8606.549
708.806	8696.627
708.934	8555.725
709.063	8633.098
709.191	8612.686
709.319	8609.196
709.447	8650.647
709.575	8655.647
709.703	8658.627
709.831	8712.314
709.959	8685.412
710.088	8734.039
710.216	8825.216
710.344	8704.118
710.472	8810.412
710.600	8893.667
710.728	8817.078
710.856	8834.157
710.984	8916.235
711.113	8875.569
711.241	8888.667
711.369	8954.627
711.497	8952.157
711.625	8944.843
711.753	8946.431
711.881	8972.000
712.009	9136.020
712.138	9077.157
712.266	8985.333
712.394	9001.510
712.522	9022.549
712.650	9084.961
712.778	9105.157
712.906	9083.059
713.034	9108.843
713.163	9197.804
713.291	9144.471
713.419	9192.176
713.547	9156.412
713.675	9195.059
713.803	9178.706
713.931	9255.137
714.059	9210.020
714.188	9256.863
714.316	9309.686
714.444	9301.451
714.572	9434.059
714.700	9369.137
714.828	9388.647
714.956	9421.510
715.084	9392.275
715.213	9406.686
715.341	9462.863
715.469	9440.392
715.597	9594.314
715.725	9493.843
715.853	9531.941
715.981	9534.745
716.109	9574.549
716.238	9612.196
716.366	9604.706
716.494	9723.490
716.622	9638.275
716.750	9646.784
716.878	9776.078
717.006	9713.216
717.134	9678.569
717.263	9698.059
717.391	9768.863
717.519	9654.804
717.647	9791.627
717.775	9724.392
717.903	9728.980
718.031	9699.569
718.159	9729.510
718.288	9793.431
718.416	9803.588
718.544	9792.471
718.672	9778.137
718.800	9831.588
718.928	9852.569
719.056	9788.627
719.184	9887.627
719.313	9853.216
719.441	9935.020
719.569	9825.863
719.697	9890.922
719.825	9950.922
719.953	9869.412
720.081	9875.529
720.209	9901.863
720.338	9889.392
720.466	9883.059
720.594	9923.157
720.722	9992.745
720.850	9935.431
720.978	9911.647
721.106	9917.157
721.234	9912.255
721.363	9885.431
721.491	9924.490
721.619	9941.725
721.747	9940.216
721.875	10022.784
722.003	9938.392
722.131	9956.255
722.259	9939.118
722.388	10060.922
722.516	9949.647
722.644	10007.961
722.772	9965.824
722.900	10032.882
723.028	10041.333
723.156	10036.039
723.284	10019.902
723.413	10038.118
723.541	10019.745
723.669	10007.118
723.797	10027.784
723.925	10018.882
724.053	10030.706
724.181	10031.902
724.309	10143.627
724.438	10064.490
724.566	10144.667
724.694	10035.098
724.822	10043.431
724.950	10173.980
725.078	10113.863
725.206	10065.765
725.334	10085.137
725.463	10091.706
725.591	10218.549
725.719	10299.078
725.847	10156.725
725.975	10194.020
726.103	10236.059
726.231	10208.137
726.359	10293.216
726.488	10401.529
726.616	10259.882
726.744	10240.412
726.872	10281.471
727.000	10429.922
727.128	10386.706
727.256	10429.333
727.384	10457.549
727.513	10372.275
727.641	10401.882
727.769	10463.941
727.897	10546.235
728.025	10533.059
728.153	10500.431
728.281	10550.451
728.409	10520.902
728.538	10572.902
728.666	10579.314
728.794	10593.196
728.922	10650.216
729.050	10661.020
729.178	10743.098
729.306	10719.020
729.434	10788.176
729.563	10809.176
729.691	10790.412
729.819	10847.686
729.947	10897.980
730.075	10956.059
730.203	10868.196
730.331	10950.000
730.459	10905.451
730.588	10957.824
730.716	11074.824
730.844	11028.314
730.972	11108.667
731.100	11056.235
731.228	11177.529
731.356	11181.882
731.484	11174.412
731.613	11238.569
731.741	11217.549
731.869	11291.902
731.997	11285.608
732.125	11394.078
732.253	11396.804
732.381	11428.843
732.509	11473.725
732.638	11473.627
732.766	11483.804
732.894	11531.824
733.022	11662.902
733.150	11626.882
733.278	11658.039
733.406	11640.882
733.534	11700.333
733.663	11689.275
733.791	11772.373
733.919	11775.118
734.047	11750.686
734.175	11835.039
734.303	11811.431
734.431	11812.843
734.559	11915.725
734.688	11958.706
734.816	11964.373
734.944	11985.922
735.072	11998.431
735.200	11998.549
735.328	11981.961
735.456	12070.549
735.584	12116.608
735.713	12164.843
735.841	12194.235
735.969	12383.039
736.097	12168.275
736.225	12216.725
736.353	12243.059
736.481	12272.078
736.609	12339.451
736.738	12364.000
736.866	12379.216
736.994	12404.765
737.122	12458.667
737.250	12467.373
737.378	12441.902
737.506	12437.392
737.634	12476.569
737.763	12499.314
737.891	12633.471
738.019	12549.471
738.147	12711.196
738.275	12568.353
738.403	12602.824
738.531	12691.059
738.659	12661.078
738.788	12726.647
738.916	12775.431
739.044	12771.078
739.172	12729.549
739.300	12814.196
739.428	12781.314
739.556	12695.039
739.684	12752.059
739.813	12846.765
739.941	12795.451
740.069	12864.196
740.197	12819.373
740.325	12856.549
740.453	12931.451
740.581	12885.216
740.709	12845.020
740.838	12829.784
740.966	12913.039
741.094	12919.216
741.222	12932.706
741.350	12956.333
741.478	12949.451
741.606	12894.471
741.734	12950.922
741.863	13012.608
741.991	13001.608
742.119	13020.294
742.247	13236.039
742.375	13048.118
742.503	13014.745
742.631	13103.235
742.759	13073.745
742.888	13129.333
743.016	13106.882
743.144	13103.706
743.272	13112.275
743.400	13212.725
743.528	13176.451
743.656	13239.647
743.784	13402.667
743.913	13257.039
744.041	13241.118
744.169	13276.784
744.297	13466.294
744.425	13309.529
744.553	13276.333
744.681	13303.667
744.809	13311.922
744.938	13315.510
745.066	13374.118
745.194	13302.039
745.322	13380.922
745.450	13317.118
745.578	13446.647
745.706	13418.706
745.834	13311.039
745.963	13367.196
746.091	13435.549
746.219	13423.176
746.347	13425.980
746.475	13347.706
746.603	13367.824
746.731	13386.804
746.859	13424.980
746.988	13426.922
747.116	13544.569
747.244	13555.647
747.372	13551.275
747.500	13509.588
747.628	13599.294
747.756	13532.961
747.884	13695.647
748.013	13757.882
748.141	13647.255
748.269	13629.784
748.397	13682.627
748.525	13700.275
748.653	13765.392
748.781	13841.412
748.909	13751.647
749.038	13865.569
749.166	13821.686
749.294	13925.451
749.422	13842.549
749.550	13818.706
749.678	13893.078
749.806	13905.157
749.934	13983.275
750.063	13945.353
750.191	14077.824
750.319	13951.745
750.447	14005.176
750.575	14091.745
750.703	13996.176
750.831	14065.098
750.959	14068.020
751.088	14081.588
751.216	14103.961
751.344	14067.275
751.472	14079.059
751.600	14131.667
751.728	14189.882
751.856	14216.863
751.984	14191.275
752.113	14261.882
752.241	14231.529
752.369	14257.157
752.497	14370.020
752.625	14171.961
752.753	14227.020
752.881	14260.412
753.009	14256.627
753.138	14253.490
753.266	14345.725
753.394	14302.882
753.522	14347.902
753.650	14323.098
753.778	14322.020
753.906	14356.000
754.034	14380.882
754.163	14442.941
754.291	14613.706
754.419	14489.667
754.547	14411.980
754.675	14510.392
754.803	14481.333
754.931	14472.667
755.059	14558.451
755.188	14592.020
755.316	14546.000
755.444	14602.451
755.572	14554.608
755.700	14583.157
755.828	14573.000
755.956	14613.569
756.084	14615.314
756.213	14659.608
756.341	14711.863
756.469	14692.725
756.597	14756.549
756.725	14637.706
756.853	14691.569
756.981	14694.157
757.109	14719.039
757.238	14697.000
757.366	14736.608
757.494	14670.412
757.622	14716.255
757.750	14743.412
757.878	14733.980
758.006	14686.059
758.134	14724.137
758.263	14767.804
758.391	14823.588
758.519	14797.392
758.647	14808.373
758.775	14776.157
758.903	14730.745
759.031	14808.157
759.159	14730.588
759.288	14913.333
759.416	14740.824
759.544	14853.922
759.672	14817.784
759.800	14921.647
759.928	14792.667
760.056	14912.824
760.184	14783.392
760.313	14805.392
760.441	14831.412
760.569	14814.667
760.697	14850.667
760.825	14840.961
760.953	14896.118
761.081	14847.784
761.209	14813.549
761.338	14866.118
761.466	14883.098
761.594	15009.275
761.722	14974.745
761.850	14840.961
761.978	14837.627
762.106	14855.275
762.234	14859.294
762.363	14880.333
762.491	14876.765
762.619	14955.824
762.747	14946.235
762.875	14969.353
763.003	14960.784
763.131	14880.745
763.259	14886.529
763.388	14869.490
763.516	14925.941
763.644	14853.784
763.772	14848.157
763.900	14904.196
764.028	14931.784
764.156	14959.000
764.284	14881.843
764.413	14836.902
764.541	14966.078
764.669	14930.804
764.797	14936.941
764.925	14898.745
765.053	14839.608
765.181	14855.373
765.309	14929.706
765.438	14960.333
765.566	14909.000
765.694	14944.235
765.822	15107.490
765.950	14983.314
766.078	14949.510
766.206	14897.510
766.334	14917.196
766.463	14910.765
766.591	14972.588
766.719	15020.608
766.847	14992.765
766.975	14974.686
767.103	15006.118
767.231	15020.725
767.359	14964.235
767.488	14968.118
767.616	14880.980
767.744	14911.725
767.872	14998.412
768.000	14930.255
768.128	14993.490
768.256	15008.294
768.384	14923.667
768.513	14942.020
768.641	14962.863
768.769	14972.196
768.897	15021.412
769.025	15098.451
769.153	14981.255
769.281	15083.490
769.409	14992.784
769.538	15026.118
769.666	15071.078
769.794	15002.118
769.922	15205.137
770.050	15099.922
770.178	15113.078
770.306	15161.804
770.434	15088.549
770.563	15140.098
770.691	15155.922
770.819	15093.294
770.947	15130.373
771.075	15055.196
771.203	15094.686
771.331	15170.843
771.459	15008.667
771.588	15073.255
771.716	15056.765
771.844	15132.353
771.972	15112.314
772.100	14990.118
772.228	15042.941
772.356	15154.235
772.484	15028.020
772.613	15067.490
772.741	15008.667
772.869	15205.647
772.997	15115.608
773.125	15189.647
773.253	15138.118
773.381	15070.843
773.509	15120.510
773.638	15089.275
773.766	15108.804
773.894	15069.353
774.022	15093.431
774.150	15088.471
774.278	15147.529
774.406	15159.000
774.534	15277.431
774.663	15218.882
774.791	15124.922
774.919	15190.216
775.047	15159.588
775.175	15116.882
775.303	15243.157
775.431	15075.353
775.559	15097.451
775.688	15079.157
775.816	15165.275
775.944	15121.392
776.072	15252.098
776.200	15124.471
776.328	15192.020
776.456	15223.294
776.584	15192.784
776.713	15222.118
776.841	15162.078
776.969	15234.353
777.097	15247.529
777.225	15347.529
777.353	15309.235
777.481	15250.725
777.609	15326.157
777.738	15245.078
777.866	15322.451
777.994	15335.961
778.122	15449.667
778.250	15490.922
778.378	15420.000
778.506	15441.608
778.634	15418.843
778.763	15617.471
778.891	15441.118
779.019	15553.333
779.147	15506.314
779.275	15511.157
779.403	15519.667
779.531	15460.882
779.659	15472.314
779.788	15560.745
779.916	15444.863
780.044	15472.667
780.172	15466.725
780.300	15437.255
780.428	15490.078
780.556	15624.039
780.684	15416.863
780.813	15443.941
780.941	15452.745
781.069	15497.471
781.197	15539.392
781.325	15690.059
781.453	15580.529
781.581	15574.961
781.709	15526.333
781.838	15563.392
781.966	15419.510
782.094	15436.137
782.222	15528.235
782.350	15405.980
782.478	15527.333
782.606	15453.941
782.734	15568.216
782.863	15476.667
782.991	15557.333
783.119	15509.824
783.247	15556.431
783.375	15512.176
783.503	15583.824
783.631	15548.667
783.759	15449.647
783.888	15543.373
784.016	15436.275
784.144	15434.588
784.272	15413.392
784.400	15432.118
784.528	15445.235
784.656	15557.078
784.784	15437.196
784.913	15406.745
785.041	15445.765
785.169	15447.549
785.297	15448.196
785.425	15405.176
785.553	15476.882
785.681	15396.902
785.809	15515.137
785.938	15416.529
786.066	15358.314
786.194	15338.078
786.322	15335.627
786.450	15302.529
786.578	15301.039
786.706	15372.608
786.834	15322.314
786.963	15356.098
787.091	15231.745
787.219	15181.588
787.347	15216.412
787.475	15231.294
787.603	15264.137
787.731	15209.765
787.859	15282.196
787.988	15381.353
788.116	15320.902
788.244	15323.784
788.372	15158.157
788.500	15240.275
788.628	15171.765
788.756	15209.020
788.884	15286.176
789.013	15206.098
789.141	15177.863
789.269	15223.353
789.397	15130.745
789.525	15229.255
789.653	15144.098
789.781	15134.902
789.909	15077.490
790.038	15106.314
790.166	15039.961
790.294	14975.471
790.422	15006.529
790.550	14995.627
790.678	14956.824
790.806	14920.098
790.934	15025.392
791.063	14947.608
791.191	15042.235
791.319	14860.941
791.447	14966.059
791.575	14923.392
791.703	14884.941
791.831	14975.922
791.959	14922.353
792.088	14935.843
792.216	14888.961
792.344	14937.510
792.472	14804.902
792.600	14851.902
792.728	14813.098
792.856	14859.961
792.984	14766.255
793.113	14817.412
793.241	14788.235
793.369	14787.255
793.497	14783.804
793.625	14845.333
793.753	14820.529
793.881	14719.667
794.009	14802.196
794.138	14697.235
794.266	14741.725
794.394	14753.529
794.522	14725.020
794.650	14692.216
794.778	14741.843
794.906	14668.706
795.034	14682.314
795.163	14633.373
795.291	14673.000
795.419	14771.922
795.547	14624.059
795.675	14651.863
795.803	14696.235
795.931	14557.333
796.059	14497.980
796.188	14585.882
796.316	14486.647
796.444	14608.431
796.572	14616.176
796.700	14546.569
796.828	14511.157
796.956	14531.157
797.084	14446.922
797.213	14418.294
797.341	14371.961
797.469	14402.588
797.597	14421.314
797.725	14440.098
797.853	14388.843
797.981	14318.216
798.109	14368.255
798.238	14271.608
798.366	14413.216
798.494	14275.059
798.622	14322.235
798.750	14328.353
798.878	14313.588
799.006	14270.804
799.134	14242.353
799.263	14131.451
799.391	14174.373
799.519	14128.608
799.647	14108.961
799.775	14081.510
799.903	14044.510
800.031	14023.843
800.159	13983.137
800.288	13985.529
800.416	13942.373
800.544	13895.471
800.672	13839.627
800.800	13857.235
800.928	13779.667
801.056	13820.902
801.184	13865.725
801.313	13848.490
801.441	13732.804
801.569	13748.333
801.697	13738.941
801.825	13719.980
801.953	13753.725
802.081	13750.098
802.209	13695.216
802.338	13726.020
802.466	13677.059
802.594	13723.000
802.722	13625.353
802.850	13531.451
802.978	13627.255
803.106	13531.980
803.234	13616.843
803.363	13581.765
803.491	13606.118
803.619	13495.255
803.747	13559.118
803.875	13437.275
804.003	13474.843
804.131	13490.569
804.259	13422.608
804.388	13361.333
804.516	13392.471
804.644	13427.941
804.772	13403.725
804.900	13372.392
805.028	13373.627
805.156	13383.667
805.284	13397.275
805.413	13377.000
805.541	13363.588
805.669	13281.196
805.797	13319.039
805.925	13285.412
806.053	13164.294
806.181	13273.569
806.309	13161.353
806.438	13191.529
806.566	13204.784
806.694	13114.431
806.822	13072.333
806.950	13155.294
807.078	13076.176
807.206	13141.804
807.334	13107.745
807.463	13011.765
807.591	12971.843
807.719	13063.314
807.847	13018.804
807.975	12995.667
808.103	12947.922
808.231	12974.275
808.359	12889.529
808.488	12818.510
808.616	12851.529
808.744	12838.059
808.872	12793.157
809.000	12754.471
809.128	12842.333
809.256	12734.725
809.384	12634.608
809.513	12620.000
809.641	12658.098
809.769	12635.882
809.897	12664.510
810.025	12651.804
810.153	12628.255
810.281	12681.039
810.409	12669.843
810.538	12643.000
810.666	12593.608
810.794	12636.157
810.922	12662.157
811.050	12670.333
811.178	12670.333
811.306	12563.255
811.434	12607.784
811.563	12558.647
811.691	12585.451
811.819	12508.020
811.947	12534.216
812.075	12474.549
812.203	12582.490
812.331	12502.784
812.459	12509.961
812.588	12475.275
812.716	12443.314
812.844	12388.686
812.972	12349.804
813.100	12332.686
813.228	12360.510
813.356	12334.059
813.484	12369.490
813.613	12379.196
813.741	12381.804
813.869	11859.039
