spectrometer_90_30nm_hybrid_at_650.00nm_cut_at_1184.50Y_01.dat
02.05.2022
11:46:33
cut middle at Y: 1184.50
top cursor: 1210 down cursor: 1159 mean of: 51 lines , 2560 datapoints
wavelength(nm)	intensity[arb. units]
485.997	5784.569
486.125	5241.314
486.253	5123.588
486.381	5087.765
486.510	5155.784
486.638	5250.863
486.766	5198.412
486.894	5235.020
487.022	5254.176
487.150	5254.098
487.278	5288.157
487.406	5253.627
487.535	5312.314
487.663	5386.157
487.791	5374.765
487.919	5380.765
488.047	5406.412
488.175	5434.843
488.303	5476.765
488.431	5492.588
488.560	5479.235
488.688	5546.941
488.816	5538.294
488.944	5580.314
489.072	5594.431
489.200	5605.569
489.328	5612.216
489.456	5678.020
489.585	5669.000
489.713	5646.196
489.841	5631.922
489.969	5631.804
490.097	5700.137
490.225	5660.588
490.353	5739.059
490.481	5695.157
490.610	5708.608
490.738	5705.980
490.866	5775.216
490.994	5729.588
491.122	5712.412
491.250	5731.804
491.378	5723.686
491.506	5793.706
491.635	5770.725
491.763	5742.961
491.891	5738.980
492.019	5799.824
492.147	5756.765
492.275	5743.686
492.403	5779.667
492.531	5893.922
492.660	5811.294
492.788	5827.745
492.916	5872.020
493.044	5797.275
493.172	5863.902
493.300	5850.961
493.428	5883.196
493.556	5940.863
493.685	5941.569
493.813	5949.627
493.941	5990.490
494.069	6000.039
494.197	6027.706
494.325	6061.471
494.453	6218.314
494.581	6118.314
494.710	6172.902
494.838	6193.020
494.966	6262.314
495.094	6212.941
495.222	6288.294
495.350	6264.922
495.478	6310.020
495.606	6335.922
495.735	6378.608
495.863	6355.157
495.991	6389.471
496.119	6457.059
496.247	6511.588
496.375	6405.471
496.503	6467.941
496.631	6483.078
496.760	6450.059
496.888	6444.706
497.016	6497.902
497.144	6497.314
497.272	6509.980
497.400	6526.588
497.528	6498.294
497.656	6474.647
497.785	6449.980
497.913	6456.353
498.041	6450.353
498.169	6439.157
498.297	6427.373
498.425	6580.137
498.553	6460.725
498.681	6466.451
498.810	6493.902
498.938	6457.510
499.066	6476.843
499.194	6533.863
499.322	6520.431
499.450	6521.510
499.578	6499.333
499.706	6550.922
499.835	6527.922
499.963	6512.353
500.091	6564.549
500.219	6570.941
500.347	6596.333
500.475	6598.000
500.603	6597.353
500.731	6627.275
500.860	6630.412
500.988	6684.157
501.116	6695.961
501.244	6690.235
501.372	6774.020
501.500	6710.882
501.628	6778.647
501.756	6803.882
501.885	6876.098
502.013	6802.569
502.141	6902.275
502.269	6855.353
502.397	7009.196
502.525	6928.020
502.653	7040.196
502.781	7013.882
502.910	7018.392
503.038	7064.725
503.166	7053.431
503.294	7063.725
503.422	7057.882
503.550	7052.294
503.678	7088.451
503.806	7108.941
503.935	7092.941
504.063	7113.235
504.191	7111.902
504.319	7080.451
504.447	7121.510
504.575	7120.549
504.703	7134.353
504.831	7126.961
504.960	7088.039
505.088	7115.627
505.216	7140.176
505.344	7247.020
505.472	7158.078
505.600	7131.961
505.728	7240.176
505.856	7186.294
505.985	7220.902
506.113	7217.510
506.241	7265.353
506.369	7222.490
506.497	7229.490
506.625	7289.608
506.753	7249.804
506.881	7297.627
507.010	7321.510
507.138	7278.608
507.266	7382.157
507.394	7355.196
507.522	7425.569
507.650	7407.647
507.778	7393.882
507.906	7428.608
508.035	7423.706
508.163	7496.824
508.291	7480.255
508.419	7581.549
508.547	7571.275
508.675	7613.843
508.803	7551.529
508.931	7612.059
509.060	7647.294
509.188	7616.824
509.316	7678.863
509.444	7669.882
509.572	7803.059
509.700	7681.941
509.828	7763.196
509.956	7714.667
510.085	7740.118
510.213	7755.255
510.341	7730.373
510.469	7750.373
510.597	7788.490
510.725	7756.137
510.853	7833.314
510.981	7861.961
511.110	7827.275
511.238	7798.863
511.366	7844.569
511.494	7796.843
511.622	7870.000
511.750	7877.882
511.878	7917.059
512.006	7830.980
512.135	7892.098
512.263	7903.490
512.391	7917.529
512.519	7929.569
512.647	7901.118
512.775	7936.275
512.903	7944.118
513.031	7971.471
513.160	7962.098
513.288	8031.412
513.416	7943.216
513.544	7952.294
513.672	7982.373
513.800	7968.529
513.928	7936.471
514.056	8000.333
514.185	7945.039
514.313	7932.569
514.441	8044.255
514.569	7978.353
514.697	7979.314
514.825	7949.235
514.953	7966.961
515.081	7919.157
515.210	7974.784
515.338	8047.647
515.466	7940.471
515.594	7927.275
515.722	7910.510
515.850	7964.020
515.978	7851.784
516.106	7935.451
516.235	7924.725
516.363	7941.471
516.491	7909.000
516.619	7920.392
516.747	8023.059
516.875	7973.667
517.003	7964.451
517.131	8021.843
517.260	7940.471
517.388	7992.784
517.516	8003.078
517.644	8022.216
517.772	8099.020
517.900	8076.510
518.028	8116.569
518.156	8158.804
518.284	8140.333
518.413	8184.725
518.541	8205.098
518.669	8177.784
518.797	8230.922
518.925	8260.059
519.053	8274.529
519.181	8294.882
519.309	8355.647
519.438	8366.824
519.566	8381.667
519.694	8395.569
519.822	8457.824
519.950	8449.333
520.078	8483.863
520.206	8511.471
520.334	8506.235
520.463	8497.627
520.591	8563.863
520.719	8546.706
520.847	8591.471
520.975	8545.020
521.103	8668.392
521.231	8572.294
521.359	8720.373
521.488	8588.882
521.616	8649.373
521.744	8573.824
521.872	8597.549
522.000	8537.216
522.128	8526.451
522.256	8518.373
522.384	8492.863
522.513	8519.686
522.641	8477.863
522.769	8526.196
522.897	8560.549
523.025	8504.451
523.153	8442.824
523.281	8496.078
523.409	8435.275
523.538	8453.549
523.666	8356.647
523.794	8467.157
523.922	8422.765
524.050	8453.941
524.178	8399.353
524.306	8405.667
524.434	8484.020
524.563	8494.157
524.691	8622.157
524.819	8483.941
524.947	8507.824
525.075	8543.961
525.203	8534.667
525.331	8578.824
525.459	8645.922
525.588	8618.902
525.716	8675.039
525.844	8687.000
525.972	8702.098
526.100	8717.275
526.228	8788.314
526.356	8778.333
526.484	8789.863
526.613	8810.765
526.741	8961.882
526.869	8893.216
526.997	8943.353
527.125	8980.216
527.253	8970.588
527.381	9065.039
527.509	9020.706
527.638	9095.882
527.766	9195.588
527.894	9185.275
528.022	9240.020
528.150	9175.490
528.278	9296.784
528.406	9270.431
528.534	9283.216
528.663	9322.569
528.791	9433.765
528.919	9379.824
529.047	9534.843
529.175	9353.098
529.303	9395.843
529.431	9371.000
529.559	9462.098
529.688	9395.000
529.816	9419.314
529.944	9521.588
530.072	9488.471
530.200	9387.647
530.328	9436.431
530.456	9460.039
530.584	9481.118
530.713	9472.137
530.841	9508.980
530.969	9454.216
531.097	9467.980
531.225	9465.059
531.353	9535.961
531.481	9519.118
531.609	9627.647
531.738	9463.608
531.866	9612.235
531.994	9561.902
532.122	9654.353
532.250	9528.745
532.378	9489.961
532.506	9487.667
532.634	9464.902
532.763	9423.745
532.891	9465.843
533.019	9483.118
533.147	9451.941
533.275	9453.196
533.403	9493.255
533.531	9493.569
533.659	9483.706
533.788	9529.980
533.916	9484.510
534.044	9477.294
534.172	9546.745
534.300	9506.745
534.428	9447.098
534.556	9664.745
534.684	9522.412
534.813	9502.392
534.941	9486.490
535.069	9462.569
535.197	9462.588
535.325	9461.569
535.453	9523.510
535.581	9608.784
535.709	9483.392
535.838	9562.588
535.966	9536.745
536.094	9536.902
536.222	9587.078
536.350	9560.529
536.478	9566.608
536.606	9621.824
536.734	9583.922
536.863	9560.373
536.991	9613.863
537.119	9659.020
537.247	9644.255
537.375	9761.471
537.503	9611.118
537.631	9622.804
537.759	9619.980
537.888	9592.353
538.016	9788.196
538.144	9716.627
538.272	9684.235
538.400	9725.373
538.528	9691.314
538.656	9798.490
538.784	9721.137
538.913	9830.706
539.041	9772.510
539.169	9788.196
539.297	9830.706
539.425	9879.686
539.553	9853.039
539.681	9952.471
539.809	9947.980
539.938	9943.020
540.066	9955.039
540.194	10044.804
540.322	10102.510
540.450	10099.196
540.578	10055.314
540.706	10120.706
540.834	10129.078
540.963	10252.569
541.091	10214.000
541.219	10174.216
541.347	10284.902
541.475	10261.529
541.603	10288.510
541.731	10299.118
541.859	10279.725
541.988	10314.725
542.116	10500.667
542.244	10355.824
542.372	10540.745
542.500	10375.314
542.628	10466.490
542.756	10367.333
542.884	10414.529
543.013	10414.627
543.141	10488.098
543.269	10486.529
543.397	10366.922
543.525	10451.431
543.653	10516.137
543.781	10411.157
543.909	10421.961
544.038	10511.627
544.166	10483.863
544.294	10556.922
544.422	10404.373
544.550	10438.373
544.678	10482.824
544.806	10383.843
544.934	10393.980
545.063	10401.647
545.191	10563.078
545.319	10462.647
545.447	10332.647
545.575	10306.451
545.703	10426.569
545.831	10385.255
545.959	10386.745
546.088	10349.647
546.216	10308.627
546.344	10353.804
546.472	10513.941
546.600	10346.647
546.728	10315.706
546.856	10335.627
546.984	10349.922
547.113	10478.216
547.241	10484.255
547.369	10468.176
547.497	10477.706
547.625	10478.020
547.753	10449.118
547.881	10381.373
548.009	10379.137
548.138	10406.137
548.266	10342.353
548.394	10388.471
548.522	10316.471
548.650	10428.647
548.778	10357.980
548.906	10271.000
549.034	10370.706
549.163	10243.098
549.291	10258.431
549.419	10305.333
549.547	10521.118
549.675	10456.216
549.803	10472.824
549.931	10491.216
550.059	10551.824
550.188	10679.216
550.316	10721.392
550.444	10780.098
550.572	10832.078
550.700	10903.882
550.828	10947.510
550.956	10965.941
551.084	11076.784
551.213	11019.275
551.341	11072.941
551.469	11086.608
551.597	11158.078
551.725	11192.980
551.853	11169.941
551.981	11261.922
552.109	11210.490
552.238	11265.725
552.366	11238.255
552.494	11209.863
552.622	11178.569
552.750	11234.941
552.878	11284.118
553.006	11328.451
553.134	11204.294
553.263	11295.235
553.391	11327.020
553.519	11470.471
553.647	11366.863
553.775	11333.000
553.903	11451.196
554.031	11400.824
554.159	11350.078
554.288	11464.824
554.416	11449.000
554.544	11479.961
554.672	11468.686
554.800	11441.333
554.928	11397.098
555.056	11402.431
555.184	11448.804
555.313	11465.235
555.441	11404.137
555.569	11444.804
555.697	11504.706
555.825	11462.980
555.953	11483.980
556.081	11421.765
556.209	11423.235
556.338	11521.373
556.466	11644.451
556.594	11472.255
556.722	11595.902
556.850	11637.824
556.978	11476.412
557.106	11509.412
557.234	11553.020
557.363	11587.647
557.491	11557.569
557.619	11565.431
557.747	11631.255
557.875	11596.235
558.003	11652.529
558.131	11638.235
558.259	11679.725
558.388	11624.941
558.516	11687.373
558.644	11693.098
558.772	11777.314
558.900	11693.373
559.028	11718.235
559.156	11690.078
559.284	11746.941
559.413	11776.216
559.541	11796.098
559.669	11805.824
559.797	11867.902
559.925	11813.137
560.053	11959.745
560.181	11882.098
560.309	11903.157
560.438	11961.471
560.566	11949.863
560.694	11902.686
560.822	12076.392
560.950	11943.098
561.078	11987.627
561.206	12098.176
561.334	11986.863
561.463	11960.137
561.591	12125.353
561.719	11998.510
561.847	12087.824
561.975	11979.451
562.103	12040.235
562.231	12077.549
562.359	11956.765
562.488	12104.922
562.616	12091.706
562.744	12077.627
562.872	12087.451
563.000	12010.686
563.128	12022.000
563.256	12046.824
563.384	12186.275
563.513	12035.804
563.641	12070.373
563.769	12113.196
563.897	12057.765
564.025	12088.039
564.153	12058.431
564.281	12176.118
564.409	12084.373
564.538	12072.196
564.666	12143.471
564.794	12170.647
564.922	12118.137
565.050	12239.961
565.178	12110.353
565.306	12201.098
565.434	12252.098
565.563	12422.353
565.691	12300.588
565.819	12511.882
565.947	12324.784
566.075	12413.882
566.203	12420.451
566.331	12414.667
566.459	13251.216
566.588	12464.314
566.716	12523.882
566.844	12526.098
566.972	12621.725
567.100	12658.824
567.228	12737.392
567.356	12807.039
567.484	12736.353
567.613	12830.471
567.741	12835.843
567.869	12847.745
567.997	12919.804
568.125	12977.000
568.253	13047.902
568.381	13026.784
568.509	13071.882
568.638	13051.059
568.766	13137.412
568.894	13171.902
569.022	13188.941
569.150	13246.549
569.278	13186.059
569.406	13307.039
569.534	13297.412
569.663	13301.294
569.791	13339.392
569.919	13426.725
570.047	13508.059
570.175	13411.686
570.303	13384.490
570.431	13418.275
570.559	13505.980
570.688	13586.039
570.816	13465.961
570.944	13521.608
571.072	13515.627
571.200	13447.647
571.328	13541.431
571.456	13559.216
571.584	13546.804
571.713	13481.471
571.841	13556.941
571.969	13697.157
572.097	13662.922
572.225	13514.627
572.353	13504.882
572.481	13429.588
572.609	13523.059
572.738	13462.020
572.866	13406.431
572.994	13438.627
573.122	13356.176
573.250	13437.745
573.378	13339.373
573.506	13367.353
573.634	13433.882
573.763	13310.118
573.891	13358.647
574.019	13389.784
574.147	13303.549
574.275	13311.333
574.403	13344.902
574.531	13316.353
574.659	13289.549
574.788	13271.863
574.916	13371.157
575.044	13284.529
575.172	13180.725
575.300	13194.294
575.428	13158.373
575.556	13208.294
575.684	13212.529
575.813	13175.333
575.941	13148.922
576.069	13127.922
576.197	13154.824
576.325	13117.039
576.453	13069.000
576.581	13103.863
576.709	13043.412
576.838	13062.549
576.966	13153.098
577.094	13273.294
577.222	13136.529
577.350	13017.235
577.478	13190.667
577.606	13144.863
577.734	13196.020
577.863	13237.118
577.991	13272.000
578.119	13352.608
578.247	13298.059
578.375	13351.059
578.503	13359.275
578.631	13362.333
578.759	13425.765
578.888	13572.647
579.016	13419.725
579.144	13443.294
579.272	13458.549
579.400	13482.020
579.528	13579.941
579.656	13599.294
579.784	13555.765
579.913	13582.333
580.041	13783.392
580.169	13653.000
580.297	13719.294
580.425	13745.373
580.553	13752.804
580.681	13800.059
580.809	13774.725
580.938	13794.510
581.066	13936.431
581.194	13857.667
581.322	13849.275
581.450	13933.392
581.578	13930.510
581.706	13985.020
581.834	14031.627
581.963	14004.647
582.091	14071.667
582.219	14101.314
582.347	14123.059
582.475	14137.608
582.603	14177.725
582.731	14277.725
582.859	14207.941
582.988	14195.098
583.116	14262.431
583.244	14291.412
583.372	14252.804
583.500	14256.608
583.628	14390.765
583.756	14352.627
583.884	14368.608
584.013	14440.451
584.141	14360.216
584.269	14419.392
584.397	14502.373
584.525	14401.275
584.653	14505.392
584.781	14498.039
584.909	14522.196
585.038	14547.608
585.166	14575.039
585.294	14587.078
585.422	14566.745
585.550	14531.412
585.678	14547.961
585.806	14621.941
585.934	14605.549
586.063	14583.569
586.191	14609.784
586.319	14696.549
586.447	14640.745
586.575	14694.961
586.703	14754.275
586.831	14668.706
586.959	14744.529
587.088	14676.157
587.216	14691.529
587.344	14722.098
587.472	14850.314
587.600	14668.294
587.728	14664.000
587.856	14661.059
587.984	14642.667
588.113	14801.627
588.241	14761.961
588.369	14740.490
588.497	14777.196
588.625	14787.137
588.753	14905.627
588.881	14791.824
589.009	14808.549
589.138	14818.412
589.266	14809.941
589.394	14835.647
589.522	14794.333
589.650	14947.490
589.778	14910.000
589.906	15006.431
590.034	14899.373
590.163	14888.333
590.291	15014.353
590.419	14924.686
590.547	15063.333
590.675	15052.725
590.803	15090.961
590.931	15016.725
591.059	15065.765
591.188	15044.373
591.316	15111.039
591.444	15096.647
591.572	15146.529
591.700	15164.490
591.828	15137.529
591.956	15187.314
592.084	15212.725
592.213	15217.725
592.341	15207.647
592.469	15281.588
592.597	15243.255
592.725	15158.294
592.853	15221.412
592.981	15234.314
593.109	15274.294
593.238	15192.137
593.366	15175.412
593.494	15137.608
593.622	15149.510
593.750	15103.922
593.878	15228.627
594.006	15156.157
594.134	15132.588
594.263	15148.706
594.391	15118.392
594.519	15148.765
594.647	15219.843
594.775	15144.235
594.903	15155.608
595.031	15189.157
595.159	15175.196
595.288	15116.745
595.416	15158.333
595.544	15158.980
595.672	15062.000
595.800	15170.922
595.928	15078.941
596.056	15105.902
596.184	15054.863
596.313	15203.882
596.441	15133.176
596.569	15113.784
596.697	15038.412
596.825	14970.824
596.953	15029.706
597.081	15026.333
597.209	15012.980
597.338	15017.941
597.466	14995.980
597.594	14975.490
597.722	15092.725
597.850	15006.392
597.978	15124.098
598.106	15135.706
598.234	15110.255
598.363	15095.922
598.491	15261.196
598.619	15125.529
598.747	15123.745
598.875	15283.941
599.003	15225.765
599.131	15332.451
599.259	15308.431
599.388	15293.510
599.516	15418.137
599.644	15463.686
599.772	15616.784
599.900	15488.235
600.028	15472.627
600.156	15573.431
600.284	15552.941
600.413	15585.804
600.541	15684.490
600.669	15736.941
600.797	15660.392
600.925	15737.020
601.053	15786.725
601.181	15834.549
601.309	15786.431
601.438	15728.980
601.566	15807.667
601.694	15850.490
601.822	16037.216
601.950	15880.804
602.078	15921.882
602.206	16005.078
602.334	16005.686
602.463	16018.412
602.591	16078.627
602.719	16087.118
602.847	16299.608
602.975	16108.353
603.103	16139.078
603.231	16220.667
603.359	16200.314
603.488	16205.235
603.616	16206.294
603.744	16252.118
603.872	16298.608
604.000	16248.980
604.128	16262.451
604.256	16288.863
604.384	16340.275
604.513	16423.804
604.641	16385.725
604.769	16401.608
604.897	16363.235
605.025	16306.471
605.153	16283.216
605.281	16411.686
605.409	16333.176
605.538	16293.196
605.666	16337.078
605.794	16333.373
605.922	16346.569
606.050	16323.255
606.178	16402.745
606.306	16360.647
606.434	16387.843
606.563	16360.490
606.691	16389.471
606.819	16422.451
606.947	16389.686
607.075	16356.294
607.203	16356.196
607.331	16376.039
607.459	16367.882
607.588	16393.078
607.716	16403.647
607.844	16377.941
607.972	16431.843
608.100	16314.608
608.228	16296.196
608.356	16356.137
608.484	16360.392
608.613	16413.510
608.741	16330.706
608.869	16350.941
608.997	16380.451
609.125	16382.745
609.253	16357.275
609.381	16331.196
609.509	16339.941
609.638	16326.588
609.766	16282.863
609.894	16309.647
610.022	16229.451
610.150	16362.569
610.278	16309.902
610.406	16248.451
610.534	16289.706
610.663	16275.490
610.791	16423.745
610.919	16283.020
611.047	16311.333
611.175	16347.686
611.303	16310.157
611.431	16322.529
611.559	16378.196
611.688	16342.078
611.816	16371.569
611.944	16310.745
612.072	16332.020
612.200	16423.706
612.328	16490.902
612.456	16406.843
612.584	16553.137
612.713	16444.490
612.841	16444.039
612.969	16426.549
613.097	16453.431
613.225	16410.294
613.353	16465.078
613.481	16454.961
613.609	16497.961
613.738	16505.922
613.866	16591.765
613.994	16559.686
614.122	16598.667
614.250	16626.000
614.378	16608.725
614.506	16599.431
614.634	16655.569
614.763	16679.196
614.891	16661.980
615.019	16703.490
615.147	16735.961
615.275	16693.137
615.403	16740.471
615.531	16778.333
615.659	16779.882
615.788	16816.059
615.916	16935.882
616.044	16841.137
616.172	17054.176
616.300	16893.549
616.428	17022.255
616.556	16934.529
616.684	16997.784
616.813	17014.333
616.941	17049.882
617.069	17017.588
617.197	17309.843
617.325	17162.196
617.453	17090.980
617.581	17166.451
617.709	17139.863
617.838	17120.804
617.966	17151.588
618.094	17157.647
618.222	17262.882
618.350	17255.765
618.478	17175.863
618.606	17306.843
618.734	17233.765
618.863	17256.098
618.991	17226.098
619.119	17297.902
619.247	17218.137
619.375	17207.392
619.503	17337.039
619.631	17392.118
619.759	17265.431
619.888	17313.569
620.016	17341.980
620.144	17402.863
620.272	17337.784
620.400	17356.882
620.528	17342.510
620.656	17494.412
620.784	17395.098
620.913	17425.451
621.041	17455.549
621.169	17473.902
621.297	17414.667
621.425	17479.745
621.553	17473.373
621.681	17556.608
621.809	17533.137
621.938	17504.333
622.066	17634.627
622.194	17565.745
622.322	17587.667
622.450	17599.294
622.578	17616.373
622.706	17698.549
622.834	17737.294
622.963	17749.824
623.091	17754.569
623.219	17732.510
623.347	17819.196
623.475	17772.922
623.603	17820.431
623.731	17822.412
623.859	17863.059
623.988	17914.314
624.116	17938.471
624.244	17991.843
624.372	18034.451
624.500	18052.196
624.628	18050.745
624.756	18098.863
624.884	18280.431
625.013	18379.196
625.141	18367.275
625.269	18261.784
625.397	18350.294
625.525	18495.235
625.653	18327.412
625.781	18478.471
625.909	18348.902
626.038	18388.804
626.166	18406.235
626.294	18413.569
626.422	18501.373
626.550	18516.235
626.678	18589.549
626.806	18478.255
626.934	18568.549
627.063	18590.157
627.191	18576.353
627.319	18658.471
627.447	18635.451
627.575	18666.137
627.703	18660.588
627.831	18711.843
627.959	18684.882
628.088	18745.059
628.216	18786.137
628.344	18700.294
628.472	18672.686
628.600	18837.137
628.728	18662.882
628.856	18575.745
628.984	18567.000
629.113	18669.275
629.241	18606.176
629.369	18600.490
629.497	18630.137
629.625	18570.020
629.753	18506.510
629.881	18505.333
630.009	18536.980
630.138	18559.059
630.266	18496.725
630.394	18687.196
630.522	18713.549
630.650	18514.627
630.778	18497.078
630.906	18470.412
631.034	18427.706
631.163	18502.235
631.291	18465.588
631.419	18391.157
631.547	18354.118
631.675	18279.000
631.803	18246.118
631.931	18217.451
632.059	18400.686
632.188	18236.333
632.316	18222.804
632.444	18329.451
632.572	18335.922
632.700	18268.314
632.828	18224.922
632.956	18174.529
633.084	18148.451
633.213	18162.588
633.341	18098.510
633.469	18171.863
633.597	18135.176
633.725	18087.608
633.853	18129.686
633.981	18101.020
634.109	18250.686
634.238	18062.255
634.366	18062.941
634.494	18083.235
634.622	18031.333
634.750	18004.196
634.878	18107.294
635.006	18075.098
635.134	18048.765
635.263	18121.549
635.391	17968.784
635.519	17949.059
635.647	17988.353
635.775	18005.255
635.903	17985.706
636.031	17877.078
636.159	17933.431
636.288	17895.039
636.416	17923.745
636.544	17908.529
636.672	17847.098
636.800	17925.588
636.928	17863.196
637.056	18033.118
637.184	17928.392
637.313	17842.275
637.441	17974.725
637.569	18044.059
637.697	18036.039
637.825	18078.784
637.953	18030.765
638.081	18035.569
638.209	18084.333
638.338	18124.529
638.466	18126.510
638.594	18162.412
638.722	18187.961
638.850	18249.431
638.978	18178.000
639.106	18177.765
639.234	18223.745
639.363	18256.196
639.491	18271.843
639.619	18371.804
639.747	18442.980
639.875	18363.412
640.003	18385.765
640.131	18452.451
640.259	18430.392
640.388	18555.608
640.516	18517.392
640.644	18544.961
640.772	18626.941
640.900	18578.627
641.028	18608.235
641.156	18602.275
641.284	18577.196
641.413	18777.294
641.541	18707.137
641.669	18649.941
641.797	18784.412
641.925	18703.784
642.053	18895.725
642.181	18737.059
642.309	18714.235
642.438	18828.529
642.566	18727.118
642.694	18877.843
642.822	18781.941
642.950	18775.000
643.078	18872.980
643.206	18835.235
643.334	18862.863
643.463	18875.510
643.591	18837.000
643.719	18868.608
643.847	18909.686
643.975	18920.902
644.103	18825.392
644.231	18932.863
644.359	18919.529
644.488	18931.176
644.616	18955.980
644.744	18978.745
644.872	18940.333
645.000	19005.824
645.128	18875.294
645.256	18874.588
645.384	18945.824
645.513	18971.941
645.641	18912.137
645.769	18918.588
645.897	19013.549
646.025	18968.843
646.153	18923.020
646.281	18947.059
646.409	18876.059
646.538	18956.941
646.666	18920.000
646.794	18928.608
646.922	18918.157
647.050	18932.373
647.178	18945.353
647.306	19048.902
647.434	18926.039
647.563	18874.333
647.691	18958.510
647.819	18977.882
647.947	18861.196
648.075	18898.882
648.203	18917.157
648.331	18912.137
648.459	18921.059
648.588	18763.196
648.716	18951.216
648.844	18845.275
648.972	18830.392
649.100	18888.431
649.228	18900.824
649.356	18888.020
649.484	18857.627
649.613	18881.745
649.741	18837.118
649.869	18821.196
649.997	18900.373
650.125	18855.922
650.253	18894.647
650.381	18797.059
650.509	18814.412
650.638	18758.373
650.766	18928.941
650.894	18725.353
651.022	18721.431
651.150	18753.490
651.278	18771.059
651.406	18783.216
651.534	18755.961
651.663	18737.804
651.791	19044.098
651.919	18799.510
652.047	18756.255
652.175	18852.706
652.303	18896.490
652.431	18868.647
652.559	18919.373
652.688	18825.020
652.816	18984.333
652.944	18918.176
653.072	18887.569
653.200	18952.431
653.328	18930.804
653.456	18900.039
653.584	19043.647
653.713	18975.804
653.841	18923.020
653.969	18987.137
654.097	19010.843
654.225	19038.922
654.353	18957.098
654.481	19119.157
654.609	19123.510
654.738	19146.451
654.866	19086.255
654.994	19227.471
655.122	19208.941
655.250	19306.098
655.378	19088.098
655.506	19213.216
655.634	19244.765
655.763	19057.137
655.891	19133.667
656.019	19073.647
656.147	19045.196
656.275	19077.941
656.403	19016.000
656.531	18934.627
656.659	19033.863
656.788	19000.706
656.916	18957.353
657.044	19006.098
657.172	19077.235
657.300	19142.294
657.428	18985.471
657.556	19057.706
657.684	18925.490
657.813	19086.235
657.941	18923.451
658.069	18886.529
658.197	18826.294
658.325	18949.647
658.453	18781.725
658.581	18755.235
658.709	18714.431
658.838	18817.373
658.966	18793.627
659.094	18805.176
659.222	18668.078
659.350	18668.961
659.478	18741.294
659.606	18739.745
659.734	18787.627
659.863	18640.353
659.991	18591.784
660.119	18580.412
660.247	18766.275
660.375	18491.824
660.503	18517.333
660.631	18558.549
660.759	18449.627
660.888	18465.431
661.016	18393.294
661.144	18445.196
661.272	18501.196
661.400	18403.275
661.528	18473.176
661.656	18411.588
661.784	18418.667
661.913	18422.353
662.041	18553.373
662.169	18469.490
662.297	18625.922
662.425	18544.529
662.553	18646.510
662.681	18522.490
662.809	18616.941
662.938	18526.314
663.066	18479.275
663.194	18494.490
663.322	18533.784
663.450	18572.608
663.578	18628.863
663.706	18877.255
663.834	18720.647
663.963	18659.745
664.091	18709.667
664.219	18688.059
664.347	18855.824
664.475	18829.431
664.603	18747.294
664.731	18692.039
664.859	18684.196
664.988	18777.608
665.116	18758.314
665.244	18832.510
665.372	18801.314
665.500	18833.235
665.628	18742.686
665.756	18829.686
665.884	18887.980
666.013	18990.647
666.141	18952.373
666.269	18937.333
666.397	18970.922
666.525	18997.765
666.653	19022.863
666.781	19209.569
666.909	19109.216
667.038	19225.059
667.166	19138.725
667.294	19218.216
667.422	19218.667
667.550	19274.118
667.678	19265.725
667.806	19273.235
667.934	19312.176
668.063	19384.451
668.191	19426.902
668.319	19470.627
668.447	19501.333
668.575	19519.569
668.703	19575.373
668.831	19604.588
668.959	19635.294
669.088	19806.176
669.216	19663.333
669.344	19724.333
669.472	19687.725
669.600	19832.706
669.728	19782.882
669.856	19740.176
669.984	19791.706
670.113	19705.216
670.241	19696.961
670.369	19744.137
670.497	19764.961
670.625	19749.176
670.753	20019.235
670.881	20030.314
671.009	19828.706
671.138	19852.157
671.266	19800.647
671.394	19870.333
671.522	19880.373
671.650	19740.902
671.778	19739.294
671.906	19753.824
672.034	19745.392
672.163	19717.608
672.291	19783.039
672.419	19813.216
672.547	19759.020
672.675	19734.569
672.803	19763.549
672.931	19737.451
673.059	19694.020
673.188	19649.020
673.316	19615.275
673.444	19682.471
673.572	19787.902
673.700	19600.725
673.828	19599.118
673.956	19546.725
674.084	19464.549
674.213	19525.451
674.341	19455.157
674.469	19431.098
674.597	19447.667
674.725	19516.059
674.853	19413.020
674.981	19435.275
675.109	19440.275
675.238	19374.902
675.366	19390.882
675.494	19298.588
675.622	19375.627
675.750	19432.137
675.878	19345.725
676.006	19327.941
676.134	19328.706
676.263	19236.588
676.391	19308.706
676.519	19240.314
676.647	19252.020
676.775	19221.549
676.903	19341.804
677.031	19280.922
677.159	19275.902
677.288	19411.902
677.416	19254.196
677.544	19227.196
677.672	19199.118
677.800	19244.020
677.928	19215.980
678.056	19245.451
678.184	19206.471
678.313	19293.235
678.441	19213.451
678.569	19453.216
678.697	19241.961
678.825	19189.549
678.953	19305.431
679.081	19327.569
679.209	19219.843
679.338	19297.196
679.466	19302.039
679.594	19229.569
679.722	19215.961
679.850	19240.412
679.978	19233.784
680.106	19228.588
680.234	19179.706
680.363	19219.314
680.491	19187.137
680.619	19393.235
680.747	19329.510
680.875	19317.824
681.003	19255.784
681.131	19330.882
681.259	19208.549
681.388	19254.941
681.516	19381.216
681.644	19256.902
681.772	19458.784
681.900	19327.549
682.028	19296.667
682.156	19380.627
682.284	19327.510
682.413	19459.275
682.541	19392.784
682.669	19474.392
682.797	19502.451
682.925	19543.431
683.053	19575.569
683.181	19627.667
683.309	19683.392
683.438	19730.373
683.566	19750.176
683.694	19804.784
683.822	19737.412
683.950	19839.275
684.078	19848.000
684.206	19955.176
684.334	19973.275
684.463	20049.157
684.591	19955.176
684.719	19922.627
684.847	19958.549
684.975	19988.804
685.103	19910.314
685.231	20070.294
685.359	19940.941
685.488	19982.706
685.616	20048.196
685.744	20041.745
685.872	20099.333
686.000	20136.510
686.128	20062.137
686.256	20120.824
686.384	20166.961
686.513	20130.922
686.641	20199.059
686.769	20156.471
686.897	20220.686
687.025	20163.275
687.153	20176.235
687.281	20175.549
687.409	20133.843
687.538	20065.784
687.666	20118.804
687.794	20152.941
687.922	20091.471
688.050	20007.431
688.178	20129.725
688.306	20135.157
688.434	20061.275
688.563	20079.235
688.691	20077.686
688.819	20212.255
688.947	20107.451
689.075	20147.784
689.203	20221.157
689.331	20154.706
689.459	20172.529
689.588	20156.451
689.716	20151.824
689.844	20093.824
689.972	20129.176
690.100	20088.000
690.228	20223.725
690.356	20103.471
690.484	20168.314
690.613	20068.941
690.741	20052.627
690.869	20117.255
690.997	20087.373
691.125	20301.353
691.253	20241.745
691.381	20104.980
691.509	19985.667
691.638	20092.294
691.766	20077.078
691.894	20039.647
692.022	20119.157
692.150	20066.843
692.278	19990.627
692.406	19995.824
692.534	19943.549
692.663	20005.922
692.791	19952.510
692.919	20007.431
693.047	19925.824
693.175	19927.059
693.303	19976.627
693.431	19870.353
693.559	19936.451
693.688	19934.510
693.816	19839.275
693.944	19859.392
694.072	19818.922
694.200	19837.686
694.328	19775.098
694.456	19874.863
694.584	19807.725
694.713	19842.510
694.841	19845.216
694.969	19794.431
695.097	19974.588
695.225	19746.373
695.353	19829.235
695.481	19771.196
695.609	19866.431
695.738	19754.294
695.866	19663.804
695.994	19755.824
696.122	19858.902
696.250	19700.137
696.378	19695.098
696.506	19594.745
696.634	19690.118
696.763	19612.529
696.891	19648.510
697.019	19680.255
697.147	19755.804
697.275	19663.490
697.403	19678.980
697.531	19696.137
697.659	19575.569
697.788	19781.510
697.916	19733.608
698.044	19678.686
698.172	19711.294
698.300	19705.647
698.428	19632.863
698.556	19646.216
698.684	19678.804
698.813	19759.294
698.941	19785.824
699.069	19727.333
699.197	19693.118
699.325	19704.588
699.453	19726.765
699.581	19855.902
699.709	19737.235
699.838	19738.784
699.966	19718.667
700.094	19725.549
700.222	19845.647
700.350	19776.431
700.478	19707.608
700.606	19633.549
700.734	19643.510
700.863	19559.608
700.991	19610.765
701.119	19619.373
701.247	19575.255
701.375	19619.863
701.503	19538.608
701.631	19537.824
701.759	19554.000
701.888	19559.961
702.016	19652.686
702.144	19524.118
702.272	19556.863
702.400	19547.412
702.528	19622.137
702.656	19678.765
702.784	19538.333
702.913	19584.275
703.041	19568.118
703.169	19687.961
703.297	19526.294
703.425	19515.196
703.553	19505.529
703.681	19487.176
703.809	19525.549
703.938	19459.137
704.066	19624.804
704.194	19490.804
704.322	19419.137
704.450	19398.824
704.578	19380.451
704.706	19451.216
704.834	19393.118
704.963	19352.176
705.091	19257.882
705.219	19263.235
705.347	19245.529
705.475	19159.314
705.603	19181.686
705.731	19159.667
705.859	19072.000
705.988	19020.882
706.116	19038.529
706.244	18965.275
706.372	19043.157
706.500	18947.471
706.628	19087.294
706.756	18902.667
706.884	18930.961
707.013	18916.608
707.141	18865.490
707.269	18899.235
707.397	18733.118
707.525	18708.725
707.653	18565.020
707.781	18576.333
707.909	18584.745
708.038	18544.000
708.166	18483.843
708.294	18497.549
708.422	18403.706
708.550	18419.196
708.678	18325.745
708.806	18323.373
708.934	18242.902
709.063	18260.882
709.191	18193.784
709.319	18270.627
709.447	18208.784
709.575	18238.118
709.703	18203.608
709.831	18331.784
709.959	18288.431
710.088	18371.804
710.216	18474.529
710.344	18407.725
710.472	18447.255
710.600	18526.431
710.728	18467.431
710.856	18482.843
710.984	18572.725
711.113	18488.882
711.241	18586.510
711.369	18583.588
711.497	18503.824
711.625	18511.157
711.753	18499.980
711.881	18551.431
712.009	18643.902
712.138	18594.588
712.266	18524.431
712.394	18552.686
712.522	18512.961
712.650	18546.333
712.778	18525.882
712.906	18561.686
713.034	18531.804
713.163	18618.451
713.291	18572.608
713.419	18550.765
713.547	18540.706
713.675	18473.961
713.803	18491.824
713.931	18506.980
714.059	18511.510
714.188	18571.784
714.316	18539.922
714.444	18514.863
714.572	18604.745
714.700	18543.451
714.828	18583.039
714.956	18524.059
715.084	18530.608
715.213	18589.373
715.341	18593.608
715.469	18580.294
715.597	18680.255
715.725	18546.824
715.853	18545.412
715.981	18609.941
716.109	18627.255
716.238	18581.647
716.366	18590.667
716.494	18594.765
716.622	18554.333
716.750	18557.863
716.878	18623.118
717.006	18571.588
717.134	18517.667
717.263	18506.255
717.391	18568.471
717.519	18469.275
717.647	18574.608
717.775	18419.529
717.903	18370.118
718.031	18358.490
718.159	18347.647
718.288	18271.765
718.416	18296.686
718.544	18270.647
718.672	18227.039
718.800	18236.824
718.928	18258.608
719.056	18209.059
719.184	18200.980
719.313	18145.549
719.441	18159.784
719.569	18070.549
719.697	18114.196
719.825	18142.176
719.953	18091.765
720.081	18044.725
720.209	17978.765
720.338	18005.627
720.466	17916.314
720.594	17969.333
720.722	17935.216
720.850	17864.745
720.978	17746.902
721.106	17786.725
721.234	17723.176
721.363	17638.392
721.491	17632.353
721.619	17571.137
721.747	17503.627
721.875	17550.667
722.003	17377.255
722.131	17374.078
722.259	17338.529
722.388	17562.647
722.516	17322.196
722.644	17332.980
722.772	17296.588
722.900	17224.608
723.028	17222.412
723.156	17228.314
723.284	17097.392
723.413	17136.667
723.541	17077.608
723.669	17023.275
723.797	16998.863
723.925	16976.902
724.053	16966.275
724.181	16890.333
724.309	17006.980
724.438	16837.176
724.566	16951.471
724.694	16785.333
724.822	16734.784
724.950	16800.725
725.078	16831.235
725.206	16721.647
725.334	16720.902
725.463	16677.941
725.591	16795.784
725.719	16856.059
725.847	16625.569
725.975	16715.176
726.103	16693.314
726.231	16651.000
726.359	16629.451
726.488	16803.255
726.616	16546.569
726.744	16597.451
726.872	16631.157
727.000	16603.412
727.128	16541.137
727.256	16628.882
727.384	16597.078
727.513	16514.353
727.641	16495.608
727.769	16461.667
727.897	16506.549
728.025	16443.431
728.153	16413.980
728.281	16389.137
728.409	16445.725
728.538	16513.863
728.666	16401.980
728.794	16413.098
728.922	16433.078
729.050	16437.725
729.178	16436.471
729.306	16394.157
729.434	16502.196
729.563	16469.353
729.691	16436.314
729.819	16451.137
729.947	16437.353
730.075	16416.157
730.203	16393.490
730.331	16419.706
730.459	16396.510
730.588	16404.765
730.716	16429.333
730.844	16376.294
730.972	16472.824
731.100	16446.373
731.228	16517.725
731.356	16519.275
731.484	16515.020
731.613	16545.196
731.741	16510.706
731.869	16501.941
731.997	16536.804
732.125	16610.863
732.253	16614.647
732.381	16615.373
732.509	16684.333
732.638	16543.000
732.766	16613.431
732.894	16673.196
733.022	16679.451
733.150	16672.490
733.278	16690.647
733.406	16668.765
733.534	16656.020
733.663	16611.706
733.791	16727.961
733.919	16685.392
734.047	16664.961
734.175	16683.137
734.303	16705.686
734.431	16645.235
734.559	16713.588
734.688	16670.255
734.816	16561.098
734.944	16661.000
735.072	16624.118
735.200	16649.627
735.328	16594.490
735.456	16623.961
735.584	16666.039
735.713	16689.216
735.841	16593.765
735.969	16868.137
736.097	16654.039
736.225	16694.451
736.353	16687.333
736.481	16663.078
736.609	16680.255
736.738	16664.529
736.866	16658.686
736.994	16656.353
737.122	16698.549
737.250	16718.627
737.378	16734.216
737.506	16627.020
737.634	16669.373
737.763	16614.863
737.891	16673.706
738.019	16608.451
738.147	16687.196
738.275	16554.882
738.403	16568.333
738.531	16575.627
738.659	16585.549
738.788	16540.804
738.916	16566.863
739.044	16560.902
739.172	16478.137
739.300	16534.392
739.428	16520.843
739.556	16442.745
739.684	16470.255
739.813	16521.216
739.941	16492.529
740.069	16466.686
740.197	16424.353
740.325	16384.725
740.453	16462.980
740.581	16396.490
740.709	16398.902
740.838	16362.686
740.966	16341.294
741.094	16335.922
741.222	16391.804
741.350	16385.431
741.478	16330.686
741.606	16260.431
741.734	16264.588
741.863	16250.471
741.991	16196.902
742.119	16235.471
742.247	16333.216
742.375	16239.020
742.503	16174.373
742.631	16212.176
742.759	16213.667
742.888	16186.373
743.016	16169.627
743.144	16083.824
743.272	16144.667
743.400	16142.882
743.528	16095.137
743.656	16059.412
743.784	16195.275
743.913	16054.255
744.041	16045.275
744.169	16007.039
744.297	16192.294
744.425	15970.863
744.553	15968.608
744.681	15985.039
744.809	15912.863
744.938	15878.922
745.066	15965.824
745.194	15925.235
745.322	15895.784
745.450	15780.333
745.578	15883.000
745.706	15902.529
745.834	15839.039
745.963	15855.608
746.091	15886.843
746.219	15881.000
746.347	15881.824
746.475	15779.314
746.603	15793.804
746.731	15751.176
746.859	15788.078
746.988	15784.882
747.116	15826.216
747.244	15768.745
747.372	15792.196
747.500	15799.490
747.628	15833.333
747.756	15736.039
747.884	15769.843
748.013	15812.294
748.141	15726.451
748.269	15719.294
748.397	15711.255
748.525	15804.196
748.653	15713.039
748.781	15751.961
748.909	15650.667
749.038	15704.353
749.166	15628.961
749.294	15746.725
749.422	15620.608
749.550	15611.000
749.678	15664.667
749.806	15714.725
749.934	15668.941
750.063	15649.863
750.191	15703.471
750.319	15578.020
750.447	15680.431
750.575	15715.647
750.703	15593.647
750.831	15584.392
750.959	15589.412
751.088	15597.020
751.216	15622.137
751.344	15572.784
751.472	15657.039
751.600	15606.882
751.728	15719.706
751.856	15651.275
751.984	15562.020
752.113	15664.431
752.241	15569.078
752.369	15526.725
752.497	15676.725
752.625	15517.824
752.753	15529.000
752.881	15537.725
753.009	15506.059
753.138	15450.725
753.266	15493.118
753.394	15526.059
753.522	15525.373
753.650	15535.392
753.778	15536.627
753.906	15483.294
754.034	15529.039
754.163	15486.549
754.291	15649.902
754.419	15527.078
754.547	15443.000
754.675	15477.706
754.803	15498.706
754.931	15468.255
755.059	15502.824
755.188	15576.000
755.316	15478.941
755.444	15477.529
755.572	15419.667
755.700	15342.941
755.828	15368.451
755.956	15373.549
756.084	15373.020
756.213	15394.608
756.341	15386.137
756.469	15334.529
756.597	15333.039
756.725	15297.020
756.853	15258.059
756.981	15334.667
757.109	15316.843
757.238	15253.765
757.366	15252.647
757.494	15196.353
757.622	15216.804
757.750	15268.490
757.878	15241.392
758.006	15243.431
758.134	15247.098
758.263	15181.961
758.391	15177.255
758.519	15174.961
758.647	15135.118
758.775	15158.706
758.903	15100.314
759.031	15120.686
759.159	15091.980
759.288	15246.235
759.416	14933.882
759.544	15109.000
759.672	15054.824
759.800	15090.980
759.928	15049.588
760.056	15159.686
760.184	15018.118
760.313	14964.275
760.441	15048.686
760.569	15003.294
760.697	15020.314
760.825	14994.235
760.953	14982.902
761.081	14963.667
761.209	14901.020
761.338	14864.706
761.466	14920.275
761.594	15051.824
761.722	14934.392
761.850	14826.490
761.978	14775.333
762.106	14863.824
762.234	14728.392
762.363	14761.059
762.491	14670.569
762.619	14675.529
762.747	14730.294
762.875	14689.471
763.003	14688.765
763.131	14647.471
763.259	14660.471
763.388	14627.314
763.516	14663.608
763.644	14587.667
763.772	14521.020
763.900	14557.059
764.028	14548.686
764.156	14540.000
764.284	14568.980
764.413	14492.235
764.541	14566.059
764.669	14509.431
764.797	14555.922
764.925	14491.412
765.053	14382.020
765.181	14387.039
765.309	14434.000
765.438	14404.706
765.566	14423.863
765.694	14397.569
765.822	14529.863
765.950	14411.471
766.078	14404.608
766.206	14301.745
766.334	14367.686
766.463	14319.490
766.591	14313.314
766.719	14325.157
766.847	14317.882
766.975	14275.039
767.103	14242.333
767.231	14272.078
767.359	14235.039
767.488	14261.471
767.616	14222.412
767.744	14245.098
767.872	14292.745
768.000	14221.373
768.128	14245.078
768.256	14275.275
768.384	14234.333
768.513	14189.980
768.641	14248.961
768.769	14245.000
768.897	14246.608
769.025	14266.235
769.153	14123.608
769.281	14223.765
769.409	14091.275
769.538	14116.529
769.666	14138.922
769.794	14133.020
769.922	14214.255
770.050	14108.961
770.178	14127.863
770.306	14080.510
770.434	14068.784
770.563	14086.549
770.691	14147.980
770.819	14014.353
770.947	14015.118
771.075	14042.490
771.203	13935.275
771.331	14071.510
771.459	13913.020
771.588	14007.353
771.716	13897.333
771.844	14007.039
771.972	14023.804
772.100	13915.569
772.228	13958.706
772.356	13974.294
772.484	13865.784
772.613	13880.902
772.741	13826.294
772.869	13979.824
772.997	13892.118
773.125	13981.059
773.253	13943.804
773.381	13855.039
773.509	13891.412
773.638	13849.686
773.766	13822.098
773.894	13820.333
774.022	13847.667
774.150	13841.471
774.278	13839.431
774.406	13848.627
774.534	13910.745
774.663	13858.098
774.791	13778.863
774.919	13817.294
775.047	13804.137
775.175	13844.098
775.303	13884.784
775.431	13791.078
775.559	13831.784
775.688	13799.020
775.816	13846.843
775.944	13757.157
776.072	13865.863
776.200	13808.137
776.328	13863.039
776.456	13812.922
776.584	13813.490
776.713	13848.922
776.841	13731.431
776.969	13751.549
777.097	13773.353
777.225	13838.843
777.353	13773.412
777.481	13788.765
777.609	13762.510
777.738	13761.804
777.866	13746.843
777.994	13727.314
778.122	13754.118
778.250	13784.510
778.378	13806.804
778.506	13788.745
778.634	13777.078
778.763	13897.039
778.891	13794.510
779.019	13842.922
779.147	13841.176
779.275	13885.667
779.403	13839.549
779.531	13793.451
779.659	13784.725
779.788	13838.412
779.916	13768.667
780.044	13782.549
780.172	13819.627
780.300	13732.059
780.428	13786.059
780.556	13862.902
780.684	13762.569
780.813	13755.118
780.941	13785.235
781.069	13729.843
781.197	13795.157
781.325	13899.824
781.453	13798.510
781.581	13832.706
781.709	13721.451
781.838	13758.353
781.966	13703.588
782.094	13694.137
782.222	13773.157
782.350	13653.765
782.478	13719.529
782.606	13662.667
782.734	13696.137
782.863	13626.549
782.991	13694.314
783.119	13655.882
783.247	13626.118
783.375	13617.529
783.503	13666.235
783.631	13656.941
783.759	13593.078
783.888	13655.922
784.016	13574.863
784.144	13576.451
784.272	13550.843
784.400	13611.196
784.528	13572.431
784.656	13630.706
784.784	13560.157
784.913	13470.784
785.041	13553.706
785.169	13524.824
785.297	13484.510
785.425	13473.255
785.553	13485.059
785.681	13417.294
785.809	13541.549
785.938	13458.510
786.066	13426.549
786.194	13381.392
786.322	13373.510
786.450	13349.255
786.578	13348.608
786.706	13367.549
786.834	13334.961
786.963	13373.137
787.091	13273.431
787.219	13248.667
787.347	13200.353
787.475	13299.510
787.603	13300.314
787.731	13242.275
787.859	13239.745
787.988	13350.118
788.116	13274.255
788.244	13286.137
788.372	13180.431
788.500	13243.431
788.628	13206.412
788.756	13116.451
788.884	13226.961
789.013	13169.922
789.141	13100.961
789.269	13139.882
789.397	13105.765
789.525	13131.725
789.653	13169.902
789.781	13078.431
789.909	13057.647
790.038	13080.255
790.166	13020.275
790.294	13000.176
790.422	12987.627
790.550	12981.922
790.678	12991.706
790.806	12928.000
790.934	12944.000
791.063	12882.569
791.191	12960.510
791.319	12878.314
791.447	12910.118
791.575	12851.980
791.703	12874.647
791.831	12861.843
791.959	12839.294
792.088	12880.118
792.216	12808.784
792.344	12785.490
792.472	12710.137
792.600	12769.157
792.728	12705.686
792.856	12826.549
792.984	12682.882
793.113	12736.412
793.241	12630.000
793.369	12622.804
793.497	12662.843
793.625	12770.569
793.753	12721.941
793.881	12611.510
794.009	12707.627
794.138	12554.353
794.266	12629.431
794.394	12564.216
794.522	12605.490
794.650	12550.725
794.778	12595.725
794.906	12558.725
795.034	12558.843
795.163	12468.627
795.291	12519.902
795.419	12651.922
795.547	12507.059
795.675	12546.686
795.803	12569.431
795.931	12440.569
796.059	12439.255
796.188	12430.039
796.316	12396.098
796.444	12471.412
796.572	12459.549
796.700	12471.725
796.828	12423.039
796.956	12433.510
797.084	12380.000
797.213	12322.373
797.341	12315.294
797.469	12335.627
797.597	12304.667
797.725	12284.392
797.853	12277.196
797.981	12251.235
798.109	12296.451
798.238	12192.784
798.366	12245.235
798.494	12120.373
798.622	12226.980
798.750	12194.745
798.878	12151.157
799.006	12159.020
799.134	12111.588
799.263	12105.157
799.391	12076.314
799.519	12046.647
799.647	12015.118
799.775	12016.510
799.903	11942.804
800.031	11946.137
800.159	11926.765
800.288	11879.745
800.416	11880.549
800.544	11830.804
800.672	11732.431
800.800	11786.667
800.928	11760.647
801.056	11714.529
801.184	11750.549
801.313	11716.941
801.441	11696.765
801.569	11719.745
801.697	11639.137
801.825	11686.706
801.953	11671.490
802.081	11738.706
802.209	11624.667
802.338	11637.118
802.466	11582.569
802.594	11591.725
802.722	11533.784
802.850	11530.882
802.978	11496.157
803.106	11460.333
803.234	11495.627
803.363	11469.549
803.491	11457.941
803.619	11395.314
803.747	11369.510
803.875	11357.569
804.003	11323.255
804.131	11364.275
804.259	11330.137
804.388	11313.451
804.516	11303.569
804.644	11322.471
804.772	11292.706
804.900	11261.647
805.028	11290.392
805.156	11225.373
805.284	11267.000
805.413	11228.000
805.541	11300.804
805.669	11249.020
805.797	11278.255
805.925	11201.843
806.053	11210.922
806.181	11259.706
806.309	11203.588
806.438	11145.765
806.566	11203.647
806.694	11193.098
806.822	11136.824
806.950	11169.000
807.078	11086.569
807.206	11124.333
807.334	11081.941
807.463	11067.020
807.591	10984.235
807.719	11062.569
807.847	10965.020
807.975	10996.569
808.103	10933.451
808.231	10918.588
808.359	10923.647
808.488	10830.745
808.616	10852.118
808.744	10803.039
808.872	10848.098
809.000	10775.235
809.128	10885.000
809.256	10739.216
809.384	10712.275
809.513	10698.020
809.641	10662.824
809.769	10679.529
809.897	10682.529
810.025	10626.745
810.153	10644.490
810.281	10685.824
810.409	10680.157
810.538	10697.314
810.666	10641.294
810.794	10622.235
810.922	10660.137
811.050	10676.706
811.178	10696.275
811.306	10610.471
811.434	10623.569
811.563	10615.627
811.691	10602.333
811.819	10551.922
811.947	10548.471
812.075	10527.353
812.203	10537.196
812.331	10468.059
812.459	10458.314
812.588	10429.863
812.716	10397.647
812.844	10349.725
812.972	10374.882
813.100	10329.137
813.228	10336.314
813.356	10313.941
813.484	10382.863
813.613	10355.431
813.741	10397.510
813.869	9915.471
