spectrometer_90_40nm_hybrid_at_650.00nm_cut_at_1184.50Y_01.dat
02.05.2022
11:50:02
cut middle at Y: 1184.50
top cursor: 1210 down cursor: 1159 mean of: 51 lines , 2560 datapoints
wavelength(nm)	intensity[arb. units]
485.997	5953.098
486.125	5438.765
486.253	5298.961
486.381	5278.216
486.510	5345.706
486.638	5412.765
486.766	5432.000
486.894	5439.353
487.022	5475.941
487.150	5468.588
487.278	5510.294
487.406	5511.431
487.535	5530.490
487.663	5580.863
487.791	5533.902
487.919	5581.843
488.047	5592.392
488.175	5630.451
488.303	5670.941
488.431	5667.275
488.560	5742.549
488.688	5736.627
488.816	5711.961
488.944	5783.235
489.072	5763.412
489.200	5831.000
489.328	5834.529
489.456	5871.667
489.585	5889.255
489.713	5871.706
489.841	5848.824
489.969	5840.627
490.097	5886.078
490.225	5884.549
490.353	5969.588
490.481	5881.882
490.610	5906.196
490.738	5885.059
490.866	5963.627
490.994	5909.863
491.122	5968.745
491.250	5946.118
491.378	5949.824
491.506	6021.137
491.635	5958.137
491.763	5978.510
491.891	5976.843
492.019	6000.373
492.147	5965.039
492.275	5961.843
492.403	5964.196
492.531	6129.608
492.660	6067.784
492.788	6061.000
492.916	6126.549
493.044	6001.275
493.172	6114.647
493.300	6060.235
493.428	6089.961
493.556	6122.216
493.685	6156.725
493.813	6158.392
493.941	6170.804
494.069	6227.314
494.197	6278.294
494.325	6282.725
494.453	6426.000
494.581	6334.608
494.710	6361.235
494.838	6403.745
494.966	6484.039
495.094	6427.784
495.222	6532.608
495.350	6508.569
495.478	6533.510
495.606	6584.118
495.735	6585.706
495.863	6625.922
495.991	6626.706
496.119	6662.706
496.247	6704.137
496.375	6685.569
496.503	6692.137
496.631	6672.471
496.760	6683.451
496.888	6706.627
497.016	6697.804
497.144	6727.353
497.272	6720.275
497.400	6738.039
497.528	6706.627
497.656	6714.529
497.785	6688.980
497.913	6708.314
498.041	6700.196
498.169	6698.902
498.297	6685.725
498.425	6816.333
498.553	6705.667
498.681	6712.647
498.810	6754.784
498.938	6696.412
499.066	6724.961
499.194	6752.569
499.322	6789.980
499.450	6709.098
499.578	6725.353
499.706	6763.078
499.835	6771.667
499.963	6753.902
500.091	6824.765
500.219	6812.392
500.347	6831.216
500.475	6808.686
500.603	6821.451
500.731	6897.902
500.860	6870.373
500.988	6928.902
501.116	6875.647
501.244	6904.824
501.372	7018.980
501.500	6981.392
501.628	7063.471
501.756	7039.588
501.885	7130.784
502.013	7027.353
502.141	7102.314
502.269	7117.549
502.397	7238.765
502.525	7161.157
502.653	7259.529
502.781	7239.490
502.910	7272.000
503.038	7318.196
503.166	7270.000
503.294	7296.078
503.422	7317.490
503.550	7302.235
503.678	7341.569
503.806	7330.314
503.935	7333.471
504.063	7350.569
504.191	7333.667
504.319	7363.588
504.447	7299.275
504.575	7369.882
504.703	7388.824
504.831	7322.392
504.960	7342.824
505.088	7385.980
505.216	7421.078
505.344	7425.314
505.472	7403.294
505.600	7362.314
505.728	7466.333
505.856	7443.078
505.985	7458.961
506.113	7453.000
506.241	7478.353
506.369	7460.490
506.497	7441.176
506.625	7532.451
506.753	7468.667
506.881	7516.667
507.010	7520.157
507.138	7522.216
507.266	7614.490
507.394	7553.863
507.522	7670.137
507.650	7614.235
507.778	7653.765
507.906	7696.922
508.035	7692.314
508.163	7737.510
508.291	7740.118
508.419	7867.157
508.547	7850.843
508.675	7898.196
508.803	7813.353
508.931	7888.667
509.060	7894.765
509.188	7888.176
509.316	7886.176
509.444	7899.431
509.572	8017.784
509.700	7933.490
509.828	8008.922
509.956	7979.941
510.085	7922.961
510.213	7970.373
510.341	7942.922
510.469	8019.941
510.597	8067.118
510.725	7979.549
510.853	8114.804
510.981	8078.078
511.110	8071.059
511.238	8061.020
511.366	8084.804
511.494	8079.412
511.622	8063.824
511.750	8132.431
511.878	8141.961
512.006	8098.020
512.135	8118.255
512.263	8145.255
512.391	8153.314
512.519	8156.588
512.647	8127.588
512.775	8221.549
512.903	8188.373
513.031	8173.745
513.160	8175.471
513.288	8240.686
513.416	8203.961
513.544	8198.882
513.672	8217.882
513.800	8219.824
513.928	8188.863
514.056	8271.863
514.185	8226.569
514.313	8202.490
514.441	8258.569
514.569	8203.314
514.697	8232.647
514.825	8203.843
514.953	8192.294
515.081	8164.196
515.210	8165.314
515.338	8263.647
515.466	8159.157
515.594	8146.863
515.722	8133.392
515.850	8139.882
515.978	8117.333
516.106	8173.510
516.235	8138.922
516.363	8171.765
516.491	8161.667
516.619	8187.765
516.747	8255.608
516.875	8204.824
517.003	8220.725
517.131	8209.392
517.260	8180.490
517.388	8287.510
517.516	8229.745
517.644	8312.333
517.772	8338.882
517.900	8312.510
518.028	8376.804
518.156	8349.176
518.284	8353.745
518.413	8395.569
518.541	8454.765
518.669	8461.569
518.797	8495.000
518.925	8513.294
519.053	8562.529
519.181	8523.118
519.309	8528.118
519.438	8596.216
519.566	8626.000
519.694	8620.686
519.822	8710.765
519.950	8683.922
520.078	8723.059
520.206	8762.510
520.334	8812.863
520.463	8770.412
520.591	8792.725
520.719	8761.882
520.847	8799.961
520.975	8779.176
521.103	8828.941
521.231	8747.627
521.359	8937.549
521.488	8819.078
521.616	8886.627
521.744	8771.176
521.872	8856.784
522.000	8799.863
522.128	8745.471
522.256	8754.216
522.384	8740.784
522.513	8748.412
522.641	8720.353
522.769	8733.490
522.897	8773.333
523.025	8743.608
523.153	8702.451
523.281	8762.961
523.409	8629.902
523.538	8677.353
523.666	8643.863
523.794	8680.549
523.922	8697.216
524.050	8653.137
524.178	8666.627
524.306	8635.627
524.434	8714.490
524.563	8735.471
524.691	8839.176
524.819	8700.039
524.947	8731.804
525.075	8739.667
525.203	8760.275
525.331	8830.471
525.459	8902.235
525.588	8800.333
525.716	8945.412
525.844	8886.667
525.972	8953.549
526.100	8936.353
526.228	8989.667
526.356	8977.235
526.484	9094.118
526.613	9068.255
526.741	9109.118
526.869	9142.333
526.997	9195.941
527.125	9205.647
527.253	9238.118
527.381	9295.157
527.509	9310.706
527.638	9359.863
527.766	9425.098
527.894	9430.235
528.022	9499.902
528.150	9423.098
528.278	9537.627
528.406	9527.157
528.534	9508.196
528.663	9511.941
528.791	9605.745
528.919	9571.078
529.047	9699.647
529.175	9570.588
529.303	9614.824
529.431	9566.549
529.559	9652.804
529.688	9584.000
529.816	9618.431
529.944	9781.412
530.072	9678.902
530.200	9700.353
530.328	9698.235
530.456	9691.275
530.584	9694.020
530.713	9693.176
530.841	9721.275
530.969	9749.078
531.097	9643.647
531.225	9682.490
531.353	9794.020
531.481	9704.529
531.609	9903.667
531.738	9724.098
531.866	9794.157
531.994	9804.176
532.122	9866.137
532.250	9758.608
532.378	9712.137
532.506	9683.471
532.634	9713.510
532.763	9641.902
532.891	9709.667
533.019	9719.235
533.147	9711.373
533.275	9688.549
533.403	9717.922
533.531	9662.549
533.659	9683.922
533.788	9691.373
533.916	9668.902
534.044	9710.569
534.172	9764.980
534.300	9741.216
534.428	9725.314
534.556	9894.000
534.684	9774.941
534.813	9769.000
534.941	9725.353
535.069	9688.961
535.197	9725.706
535.325	9709.431
535.453	9714.667
535.581	9803.373
535.709	9725.431
535.838	9732.725
535.966	9756.373
536.094	9767.902
536.222	9774.255
536.350	9768.196
536.478	9719.824
536.606	9820.824
536.734	9791.627
536.863	9788.980
536.991	9813.471
537.119	9837.824
537.247	9831.020
537.375	9945.294
537.503	9850.510
537.631	9826.098
537.759	9838.529
537.888	9792.902
538.016	10034.529
538.144	9908.627
538.272	9827.725
538.400	9905.373
538.528	9882.118
538.656	9952.608
538.784	9945.863
538.913	10024.059
539.041	10023.471
539.169	9961.275
539.297	10013.157
539.425	10139.647
539.553	10076.627
539.681	10134.922
539.809	10107.353
539.938	10101.706
540.066	10175.314
540.194	10232.490
540.322	10312.627
540.450	10321.314
540.578	10217.882
540.706	10307.196
540.834	10313.059
540.963	10432.471
541.091	10374.529
541.219	10368.941
541.347	10473.490
541.475	10453.196
541.603	10459.569
541.731	10486.275
541.859	10456.961
541.988	10483.706
542.116	10637.216
542.244	10535.843
542.372	10663.196
542.500	10576.451
542.628	10652.020
542.756	10581.353
542.884	10570.039
543.013	10580.196
543.141	10707.157
543.269	10661.431
543.397	10537.843
543.525	10617.667
543.653	10719.549
543.781	10572.078
543.909	10599.255
544.038	10682.627
544.166	10645.255
544.294	10713.667
544.422	10577.294
544.550	10654.392
544.678	10635.529
544.806	10579.294
544.934	10574.000
545.063	10618.098
545.191	10687.098
545.319	10624.275
545.447	10475.157
545.575	10508.529
545.703	10543.392
545.831	10541.392
545.959	10521.235
546.088	10529.000
546.216	10499.667
546.344	10503.431
546.472	10656.529
546.600	10524.843
546.728	10532.529
546.856	10548.451
546.984	10506.608
547.113	10621.843
547.241	10611.471
547.369	10703.647
547.497	10631.392
547.625	10636.137
547.753	10568.784
547.881	10553.549
548.009	10557.980
548.138	10559.490
548.266	10508.647
548.394	10539.608
548.522	10462.098
548.650	10615.294
548.778	10502.157
548.906	10441.039
549.034	10508.667
549.163	10364.137
549.291	10386.392
549.419	10435.000
549.547	10663.725
549.675	10595.412
549.803	10583.451
549.931	10675.431
550.059	10703.059
550.188	10826.510
550.316	10823.235
550.444	10971.647
550.572	10968.863
550.700	11025.314
550.828	11100.686
550.956	11149.314
551.084	11218.333
551.213	11153.882
551.341	11250.078
551.469	11201.412
551.597	11296.373
551.725	11323.275
551.853	11302.961
551.981	11370.392
552.109	11313.980
552.238	11424.020
552.366	11349.863
552.494	11328.373
552.622	11341.510
552.750	11422.922
552.878	11392.431
553.006	11471.549
553.134	11422.608
553.263	11424.843
553.391	11408.392
553.519	11579.588
553.647	11475.980
553.775	11472.647
553.903	11591.333
554.031	11544.784
554.159	11513.078
554.288	11558.882
554.416	11508.294
554.544	11599.039
554.672	11529.941
554.800	11572.529
554.928	11503.804
555.056	11473.588
555.184	11542.529
555.313	11505.510
555.441	11504.510
555.569	11507.294
555.697	11633.412
555.825	11567.098
555.953	11558.314
556.081	11508.745
556.209	11537.373
556.338	11599.922
556.466	11735.863
556.594	11543.647
556.722	11625.314
556.850	11687.765
556.978	11539.784
557.106	11593.490
557.234	11578.333
557.363	11695.627
557.491	11637.804
557.619	11659.843
557.747	11707.137
557.875	11697.882
558.003	11688.627
558.131	11706.431
558.259	11767.627
558.388	11722.902
558.516	11763.745
558.644	11760.863
558.772	11864.020
558.900	11798.078
559.028	11796.804
559.156	11849.647
559.284	11827.353
559.413	11842.039
559.541	11901.824
559.669	11911.353
559.797	11961.510
559.925	11918.706
560.053	12026.118
560.181	11928.333
560.309	12002.725
560.438	12015.373
560.566	11978.843
560.694	11964.059
560.822	12174.196
560.950	12070.275
561.078	12122.588
561.206	12232.451
561.334	12068.118
561.463	12018.725
561.591	12120.314
561.719	12089.275
561.847	12095.902
561.975	12046.431
562.103	12096.510
562.231	12130.078
562.359	12102.431
562.488	12150.000
562.616	12116.098
562.744	12162.039
562.872	12158.686
563.000	12085.627
563.128	12118.961
563.256	12069.706
563.384	12249.627
563.513	12088.529
563.641	12149.647
563.769	12149.137
563.897	12152.431
564.025	12112.529
564.153	12107.686
564.281	12212.686
564.409	12131.922
564.538	12148.922
564.666	12204.765
564.794	12190.667
564.922	12182.549
565.050	12241.020
565.178	12208.020
565.306	12233.275
565.434	12269.569
565.563	12425.098
565.691	12327.471
565.819	12550.216
565.947	12360.451
566.075	12383.451
566.203	12462.137
566.331	12414.529
566.459	13305.667
566.588	12492.882
566.716	12566.451
566.844	12534.137
566.972	12672.471
567.100	12688.922
567.228	12772.843
567.356	12875.353
567.484	12803.176
567.613	12889.529
567.741	12874.333
567.869	12917.176
567.997	12943.706
568.125	13004.098
568.253	13132.020
568.381	13040.647
568.509	13154.902
568.638	13130.471
568.766	13197.020
568.894	13171.608
569.022	13148.275
569.150	13245.804
569.278	13192.255
569.406	13365.471
569.534	13317.353
569.663	13290.431
569.791	13309.098
569.919	13378.529
570.047	13538.353
570.175	13394.255
570.303	13425.314
570.431	13401.863
570.559	13448.235
570.688	13584.412
570.816	13448.059
570.944	13525.549
571.072	13515.176
571.200	13418.314
571.328	13438.667
571.456	13576.549
571.584	13508.882
571.713	13521.686
571.841	13618.039
571.969	13695.608
572.097	13706.451
572.225	13559.000
572.353	13466.196
572.481	13461.000
572.609	13534.098
572.738	13490.196
572.866	13471.373
572.994	13419.667
573.122	13487.255
573.250	13470.745
573.378	13406.020
573.506	13380.980
573.634	13454.588
573.763	13334.235
573.891	13360.922
574.019	13417.529
574.147	13383.843
574.275	13374.314
574.403	13384.902
574.531	13294.451
574.659	13279.725
574.788	13278.647
574.916	13370.275
575.044	13249.471
575.172	13184.706
575.300	13165.000
575.428	13163.137
575.556	13094.275
575.684	13148.490
575.813	13072.490
575.941	13134.510
576.069	13034.471
576.197	13144.510
576.325	13014.098
576.453	13049.373
576.581	13030.706
576.709	12999.314
576.838	13004.333
576.966	13116.510
577.094	13158.294
577.222	13050.569
577.350	13016.196
577.478	13063.235
577.606	13051.608
577.734	13123.843
577.863	13141.471
577.991	13190.314
578.119	13262.294
578.247	13230.490
578.375	13280.647
578.503	13232.922
578.631	13247.039
578.759	13306.314
578.888	13482.098
579.016	13287.137
579.144	13329.353
579.272	13372.490
579.400	13385.451
579.528	13452.902
579.656	13543.412
579.784	13495.157
579.913	13539.373
580.041	13727.667
580.169	13529.039
580.297	13607.431
580.425	13635.627
580.553	13706.314
580.681	13786.922
580.809	13755.314
580.938	13791.275
581.066	13890.137
581.194	13813.765
581.322	13808.353
581.450	13944.784
581.578	13864.392
581.706	13878.000
581.834	13912.235
581.963	13963.902
582.091	13977.765
582.219	14041.980
582.347	14036.020
582.475	13998.373
582.603	14045.294
582.731	14160.725
582.859	14053.039
582.988	14128.255
583.116	14159.706
583.244	14152.824
583.372	14187.412
583.500	14178.627
583.628	14268.471
583.756	14270.314
583.884	14227.490
584.013	14315.627
584.141	14290.961
584.269	14310.235
584.397	14398.039
584.525	14315.490
584.653	14366.804
584.781	14402.235
584.909	14444.020
585.038	14429.255
585.166	14410.333
585.294	14511.000
585.422	14488.490
585.550	14424.176
585.678	14440.078
585.806	14495.686
585.934	14487.451
586.063	14513.824
586.191	14505.980
586.319	14520.373
586.447	14491.157
586.575	14518.686
586.703	14599.098
586.831	14506.588
586.959	14596.471
587.088	14531.451
587.216	14516.176
587.344	14581.451
587.472	14748.922
587.600	14534.627
587.728	14507.961
587.856	14564.235
587.984	14571.902
588.113	14634.353
588.241	14640.569
588.369	14609.529
588.497	14608.412
588.625	14609.196
588.753	14745.020
588.881	14625.039
589.009	14630.314
589.138	14698.353
589.266	14679.549
589.394	14717.902
589.522	14752.804
589.650	14813.804
589.778	14773.373
589.906	14849.333
590.034	14768.000
590.163	14721.118
590.291	14829.686
590.419	14801.549
590.547	14898.549
590.675	14893.608
590.803	14915.941
590.931	14887.804
591.059	14870.804
591.188	14902.647
591.316	14822.784
591.444	14885.314
591.572	14985.078
591.700	14963.157
591.828	14949.765
591.956	15011.588
592.084	15016.196
592.213	15064.294
592.341	15000.118
592.469	15036.216
592.597	14979.922
592.725	14977.490
592.853	15007.392
592.981	15041.667
593.109	15003.784
593.238	15001.294
593.366	14958.059
593.494	14957.824
593.622	14993.863
593.750	14987.235
593.878	15042.686
594.006	14922.196
594.134	14962.608
594.263	14996.020
594.391	14903.549
594.519	14965.471
594.647	15001.706
594.775	14912.235
594.903	14900.706
595.031	14993.333
595.159	14968.882
595.288	14962.706
595.416	14940.471
595.544	14918.118
595.672	14886.078
595.800	14962.902
595.928	14886.824
596.056	14870.882
596.184	14829.490
596.313	15023.529
596.441	14848.784
596.569	14870.275
596.697	14772.745
596.825	14760.255
596.953	14777.941
597.081	14872.765
597.209	14803.000
597.338	14850.686
597.466	14865.020
597.594	14799.059
597.722	14974.843
597.850	14922.549
597.978	14912.157
598.106	15046.039
598.234	15007.765
598.363	14892.412
598.491	15136.863
598.619	14964.157
598.747	14974.569
598.875	15094.824
599.003	15027.706
599.131	15105.706
599.259	15085.078
599.388	15022.039
599.516	15229.157
599.644	15243.667
599.772	15377.745
599.900	15307.294
600.028	15262.275
600.156	15361.412
600.284	15317.882
600.413	15361.863
600.541	15449.235
600.669	15537.431
600.797	15429.588
600.925	15572.490
601.053	15559.824
601.181	15550.392
601.309	15539.275
601.438	15561.314
601.566	15525.314
601.694	15653.275
601.822	15860.451
601.950	15608.882
602.078	15669.882
602.206	15722.333
602.334	15710.863
602.463	15736.667
602.591	15837.863
602.719	15797.647
602.847	16034.941
602.975	15859.745
603.103	15869.314
603.231	15919.353
603.359	15945.431
603.488	15897.863
603.616	15950.706
603.744	16010.353
603.872	15987.824
604.000	16035.118
604.128	16011.941
604.256	15982.333
604.384	16075.569
604.513	16113.137
604.641	16119.000
604.769	16134.647
604.897	16063.902
605.025	15995.392
605.153	16046.667
605.281	16083.627
605.409	16049.784
605.538	16018.392
605.666	16032.176
605.794	16012.804
605.922	16146.314
606.050	16060.980
606.178	16100.922
606.306	16067.588
606.434	16113.235
606.563	16055.000
606.691	16095.412
606.819	16145.980
606.947	16160.412
607.075	16105.373
607.203	16104.235
607.331	16203.471
607.459	16118.569
607.588	16059.333
607.716	16141.255
607.844	16176.098
607.972	16176.569
608.100	16109.882
608.228	16100.078
608.356	16149.353
608.484	16129.235
608.613	16139.098
608.741	16116.608
608.869	16112.333
608.997	16157.098
609.125	16144.745
609.253	16154.333
609.381	16077.922
609.509	16040.922
609.638	16119.118
609.766	16061.000
609.894	16088.275
610.022	16007.843
610.150	16092.686
610.278	16003.275
610.406	16049.020
610.534	16077.608
610.663	16032.902
610.791	16157.490
610.919	15931.686
611.047	16130.020
611.175	16026.706
611.303	16088.098
611.431	16071.353
611.559	16072.961
611.688	16062.333
611.816	16073.627
611.944	16058.608
612.072	16080.471
612.200	16137.333
612.328	16183.490
612.456	16096.529
612.584	16259.235
612.713	16116.078
612.841	16210.725
612.969	16174.549
613.097	16182.627
613.225	16122.980
613.353	16215.353
613.481	16098.098
613.609	16192.510
613.738	16170.569
613.866	16252.961
613.994	16246.176
614.122	16277.098
614.250	16293.627
614.378	16326.725
614.506	16296.765
614.634	16366.922
614.763	16339.137
614.891	16361.569
615.019	16363.510
615.147	16515.137
615.275	16431.137
615.403	16488.196
615.531	16501.980
615.659	16577.941
615.788	16549.059
615.916	16654.902
616.044	16607.451
616.172	16750.137
616.300	16594.451
616.428	16689.294
616.556	16683.255
616.684	16745.588
616.813	16740.039
616.941	16788.725
617.069	16762.235
617.197	16994.882
617.325	16921.098
617.453	16861.804
617.581	16904.392
617.709	16803.588
617.838	16862.216
617.966	16867.706
618.094	16919.373
618.222	16889.961
618.350	16965.667
618.478	16788.941
618.606	16984.569
618.734	16986.608
618.863	16999.098
618.991	16924.961
619.119	17027.353
619.247	16932.745
619.375	17019.118
619.503	17026.706
619.631	17151.333
619.759	16961.118
619.888	17021.902
620.016	17136.020
620.144	17105.804
620.272	16999.725
620.400	17123.216
620.528	17065.333
620.656	17201.824
620.784	17157.333
620.913	17137.784
621.041	17147.471
621.169	17212.922
621.297	17141.725
621.425	17165.745
621.553	17201.804
621.681	17293.294
621.809	17273.333
621.938	17271.451
622.066	17398.412
622.194	17321.353
622.322	17372.765
622.450	17398.255
622.578	17350.725
622.706	17419.353
622.834	17447.667
622.963	17510.275
623.091	17483.373
623.219	17516.765
623.347	17608.294
623.475	17545.961
623.603	17523.137
623.731	17612.039
623.859	17693.373
623.988	17754.118
624.116	17749.451
624.244	17855.216
624.372	17810.569
624.500	17850.078
624.628	17853.255
624.756	17923.137
624.884	18073.745
625.013	18117.412
625.141	18010.824
625.269	18054.686
625.397	18126.980
625.525	18204.078
625.653	18070.216
625.781	18240.059
625.909	18170.137
626.038	18178.294
626.166	18182.216
626.294	18173.490
626.422	18231.510
626.550	18293.490
626.678	18321.314
626.806	18206.804
626.934	18286.843
627.063	18297.373
627.191	18318.118
627.319	18344.882
627.447	18324.373
627.575	18322.863
627.703	18333.412
627.831	18453.784
627.959	18447.235
628.088	18455.020
628.216	18517.608
628.344	18414.804
628.472	18431.667
628.600	18642.373
628.728	18423.098
628.856	18425.078
628.984	18408.510
629.113	18350.216
629.241	18362.137
629.369	18315.118
629.497	18345.059
629.625	18319.176
629.753	18220.627
629.881	18263.529
630.009	18295.549
630.138	18306.510
630.266	18291.196
630.394	18430.510
630.522	18377.510
630.650	18210.745
630.778	18140.765
630.906	18131.725
631.034	18070.961
631.163	18174.686
631.291	18182.647
631.419	18117.392
631.547	18037.588
631.675	18033.863
631.803	17990.176
631.931	18035.980
632.059	18151.667
632.188	18010.078
632.316	17950.020
632.444	18108.000
632.572	18034.667
632.700	17949.863
632.828	18025.176
632.956	17956.275
633.084	17897.529
633.213	17996.196
633.341	17894.941
633.469	17929.804
633.597	17848.235
633.725	17830.471
633.853	17877.000
633.981	17856.176
634.109	17981.529
634.238	17755.843
634.366	17760.490
634.494	17770.078
634.622	17787.373
634.750	17761.373
634.878	17777.804
635.006	17796.353
635.134	17776.275
635.263	17830.078
635.391	17730.412
635.519	17728.569
635.647	17781.176
635.775	17734.588
635.903	17703.980
636.031	17600.314
636.159	17597.922
636.288	17576.922
636.416	17543.824
636.544	17594.961
636.672	17603.882
636.800	17654.843
636.928	17606.216
637.056	17717.137
637.184	17672.118
637.313	17617.451
637.441	17680.314
637.569	17778.451
637.697	17796.333
637.825	17689.314
637.953	17768.471
638.081	17728.353
638.209	17881.255
638.338	17782.961
638.466	17862.529
638.594	17805.725
638.722	17876.902
638.850	18007.980
638.978	17918.078
639.106	17951.647
639.234	17940.549
639.363	17924.922
639.491	17911.294
639.619	18129.137
639.747	18072.941
639.875	18098.686
640.003	18115.961
640.131	18124.294
640.259	18115.824
640.388	18212.235
640.516	18204.922
640.644	18231.667
640.772	18306.745
640.900	18277.941
641.028	18276.451
641.156	18273.216
641.284	18288.451
641.413	18350.843
641.541	18317.627
641.669	18347.235
641.797	18403.157
641.925	18364.078
642.053	18515.627
642.181	18382.020
642.309	18427.843
642.438	18512.196
642.566	18448.490
642.694	18599.588
642.822	18455.314
642.950	18411.627
643.078	18509.020
643.206	18438.392
643.334	18412.824
643.463	18398.627
643.591	18403.863
643.719	18499.471
643.847	18518.980
643.975	18494.412
644.103	18506.176
644.231	18528.961
644.359	18485.216
644.488	18575.627
644.616	18498.804
644.744	18527.157
644.872	18553.608
645.000	18644.176
645.128	18555.588
645.256	18501.863
645.384	18653.255
645.513	18518.471
645.641	18398.843
645.769	18537.824
645.897	18568.804
646.025	18498.627
646.153	18492.333
646.281	18554.392
646.409	18469.667
646.538	18532.235
646.666	18520.941
646.794	18494.392
646.922	18514.588
647.050	18575.765
647.178	18512.980
647.306	18668.843
647.434	18462.765
647.563	18457.333
647.691	18494.647
647.819	18542.098
647.947	18366.627
648.075	18415.569
648.203	18442.275
648.331	18454.196
648.459	18423.275
648.588	18360.373
648.716	18497.980
648.844	18390.725
648.972	18319.157
649.100	18429.118
649.228	18349.118
649.356	18419.137
649.484	18382.706
649.613	18425.353
649.741	18340.275
649.869	18291.627
649.997	18360.333
650.125	18466.216
650.253	18340.902
650.381	18331.549
650.509	18265.353
650.638	18219.490
650.766	18410.471
650.894	18252.353
651.022	18201.510
651.150	18262.196
651.278	18269.784
651.406	18201.373
651.534	18169.353
651.663	18220.529
651.791	18453.529
651.919	18233.529
652.047	18210.373
652.175	18215.549
652.303	18237.196
652.431	18223.608
652.559	18288.431
652.688	18212.255
652.816	18374.725
652.944	18307.686
653.072	18266.529
653.200	18309.020
653.328	18374.333
653.456	18269.039
653.584	18369.235
653.713	18283.725
653.841	18346.549
653.969	18325.373
654.097	18344.745
654.225	18349.392
654.353	18385.294
654.481	18377.765
654.609	18507.451
654.738	18514.431
654.866	18507.902
654.994	18599.039
655.122	18611.627
655.250	18634.569
655.378	18428.667
655.506	18568.471
655.634	18568.941
655.763	18466.922
655.891	18430.314
656.019	18377.902
656.147	18435.745
656.275	18499.941
656.403	18475.294
656.531	18326.510
656.659	18372.667
656.788	18358.941
656.916	18320.980
657.044	18313.098
657.172	18329.431
657.300	18471.824
657.428	18275.373
657.556	18361.353
657.684	18227.569
657.813	18244.216
657.941	18158.373
658.069	18138.588
658.197	18107.157
658.325	18149.529
658.453	18049.098
658.581	18048.510
658.709	18001.608
658.838	18094.118
658.966	18002.980
659.094	18007.137
659.222	17949.784
659.350	17951.373
659.478	17988.804
659.606	18039.627
659.734	18028.137
659.863	17907.725
659.991	17833.353
660.119	17941.157
660.247	18042.804
660.375	17871.647
660.503	17810.353
660.631	17855.196
660.759	17792.529
660.888	17767.961
661.016	17706.510
661.144	17729.353
661.272	17722.451
661.400	17752.863
661.528	17712.353
661.656	17699.000
661.784	17620.922
661.913	17722.824
662.041	17795.765
662.169	17637.529
662.297	17845.000
662.425	17732.451
662.553	17837.765
662.681	17709.863
662.809	17828.549
662.938	17735.941
663.066	17724.431
663.194	17766.510
663.322	17807.314
663.450	17794.176
663.578	17849.569
663.706	18028.686
663.834	17885.510
663.963	17903.157
664.091	17872.392
664.219	17906.588
664.347	18045.314
664.475	18005.333
664.603	17939.137
664.731	17929.039
664.859	17888.020
664.988	18002.843
665.116	17949.314
665.244	18057.549
665.372	18040.431
665.500	18054.804
665.628	17993.275
665.756	18096.078
665.884	18153.314
666.013	18126.118
666.141	18141.314
666.269	18186.255
666.397	18158.235
666.525	18199.843
666.653	18254.549
666.781	18394.882
666.909	18296.039
667.038	18328.333
667.166	18339.039
667.294	18365.863
667.422	18406.627
667.550	18423.549
667.678	18428.059
667.806	18477.667
667.934	18508.706
668.063	18580.510
668.191	18668.137
668.319	18674.902
668.447	18643.020
668.575	18730.137
668.703	18736.176
668.831	18755.980
668.959	18820.176
669.088	18987.039
669.216	18794.961
669.344	18891.020
669.472	18899.137
669.600	18892.549
669.728	18967.235
669.856	18894.078
669.984	18925.843
670.113	18942.451
670.241	18950.725
670.369	18975.667
670.497	18996.451
670.625	18998.588
670.753	19210.765
670.881	19237.451
671.009	19029.725
671.138	19068.863
671.266	19032.353
671.394	19088.882
671.522	19147.627
671.650	18999.157
671.778	18951.412
671.906	18997.784
672.034	19069.961
672.163	19036.059
672.291	18992.765
672.419	19106.471
672.547	19018.235
672.675	18990.922
672.803	19007.627
672.931	19016.824
673.059	18998.137
673.188	18908.706
673.316	18941.353
673.444	19016.176
673.572	19086.588
673.700	18957.176
673.828	18897.490
673.956	18909.549
674.084	18831.667
674.213	18866.745
674.341	18843.078
674.469	18846.157
674.597	18800.373
674.725	18903.667
674.853	18767.510
674.981	18817.059
675.109	18693.784
675.238	18703.196
675.366	18671.431
675.494	18683.804
675.622	18729.196
675.750	18794.333
675.878	18746.569
676.006	18774.627
676.134	18731.549
676.263	18655.373
676.391	18686.804
676.519	18621.725
676.647	18673.412
676.775	18657.471
676.903	18762.118
677.031	18634.294
677.159	18712.078
677.288	18876.824
677.416	18692.686
677.544	18697.824
677.672	18676.353
677.800	18611.020
677.928	18626.863
678.056	18737.078
678.184	18696.882
678.313	18755.314
678.441	18686.627
678.569	18954.137
678.697	18730.000
678.825	18728.020
678.953	18777.020
679.081	18745.784
679.209	18751.412
679.338	18875.157
679.466	18765.039
679.594	18746.745
679.722	18805.314
679.850	18750.569
679.978	18787.667
680.106	18787.804
680.234	18744.843
680.363	18866.157
680.491	18822.431
680.619	19039.373
680.747	18973.765
680.875	18905.255
681.003	18924.255
681.131	18960.941
681.259	18874.392
681.388	18898.549
681.516	19103.255
681.644	18932.294
681.772	19104.275
681.900	18978.196
682.028	19008.039
682.156	19081.804
682.284	19082.745
682.413	19150.647
682.541	19162.961
682.669	19183.471
682.797	19282.314
682.925	19344.078
683.053	19360.333
683.181	19354.725
683.309	19403.196
683.438	19476.863
683.566	19542.451
683.694	19554.412
683.822	19597.039
683.950	19634.275
684.078	19648.882
684.206	19757.510
684.334	19767.608
684.463	19780.098
684.591	19766.510
684.719	19716.706
684.847	19747.451
684.975	19769.176
685.103	19745.451
685.231	19878.471
685.359	19765.784
685.488	19883.137
685.616	19865.412
685.744	19898.706
685.872	19858.275
686.000	19948.118
686.128	19955.549
686.256	19931.059
686.384	19977.980
686.513	19943.412
686.641	20023.451
686.769	20052.294
686.897	20123.725
687.025	20034.020
687.153	20084.314
687.281	20047.118
687.409	20137.922
687.538	20103.569
687.666	20070.647
687.794	20116.098
687.922	20137.000
688.050	20055.000
688.178	20193.667
688.306	20161.118
688.434	20025.157
688.563	20016.353
688.691	20059.941
688.819	20191.314
688.947	20108.804
689.075	20230.176
689.203	20248.216
689.331	20235.157
689.459	20273.765
689.588	20236.608
689.716	20213.569
689.844	20254.725
689.972	20262.627
690.100	20174.941
690.228	20283.118
690.356	20149.510
690.484	20299.118
690.613	20174.549
690.741	20169.902
690.869	20185.118
690.997	20166.353
691.125	20426.314
691.253	20354.706
691.381	20182.863
691.509	20163.098
691.638	20133.137
691.766	20249.902
691.894	20276.412
692.022	20230.294
692.150	20264.941
692.278	20194.373
692.406	20193.392
692.534	20168.157
692.663	20112.706
692.791	20167.902
692.919	20171.588
693.047	20101.039
693.175	20171.157
693.303	20285.373
693.431	20138.961
693.559	20183.294
693.688	20180.314
693.816	20048.431
693.944	20070.647
694.072	20112.275
694.200	20079.098
694.328	20072.373
694.456	20178.529
694.584	20072.824
694.713	20130.373
694.841	20123.039
694.969	20159.137
695.097	20259.314
695.225	20101.529
695.353	20284.725
695.481	20151.353
695.609	20224.137
695.738	20091.373
695.866	20102.804
695.994	20050.961
696.122	20162.039
696.250	20077.804
696.378	20086.863
696.506	20051.588
696.634	20011.725
696.763	20015.333
696.891	20056.039
697.019	20023.706
697.147	20186.706
697.275	20091.961
697.403	20103.922
697.531	20071.235
697.659	20062.549
697.788	20190.863
697.916	20122.314
698.044	20149.294
698.172	20138.882
698.300	20210.569
698.428	20175.392
698.556	20061.137
698.684	20140.078
698.813	20185.804
698.941	20279.706
699.069	20139.412
699.197	20126.647
699.325	20146.882
699.453	20143.275
699.581	20290.059
699.709	20157.882
699.838	20166.431
699.966	20147.804
700.094	20267.980
700.222	20450.922
700.350	20393.255
700.478	20330.431
700.606	20300.294
700.734	20194.686
700.863	20194.686
700.991	20335.039
701.119	20240.353
701.247	20214.725
701.375	20352.255
701.503	20149.627
701.631	20185.922
701.759	20165.098
701.888	20192.510
702.016	20323.608
702.144	20213.118
702.272	20184.059
702.400	20192.373
702.528	20233.412
702.656	20375.843
702.784	20187.765
702.913	20284.353
703.041	20250.902
703.169	20364.667
703.297	20192.941
703.425	20177.157
703.553	20279.255
703.681	20301.745
703.809	20277.529
703.938	20228.000
704.066	20356.118
704.194	20226.176
704.322	20119.471
704.450	20113.294
704.578	20066.569
704.706	20183.431
704.834	20079.431
704.963	20042.647
705.091	19967.333
705.219	19992.686
705.347	19920.471
705.475	19840.098
705.603	19862.098
705.731	19823.314
705.859	19824.647
705.988	19723.431
706.116	19775.941
706.244	19695.627
706.372	19821.529
706.500	19651.765
706.628	19731.686
706.756	19746.608
706.884	19717.000
707.013	19711.608
707.141	19613.020
707.269	19730.510
707.397	19546.196
707.525	19533.196
707.653	19482.471
707.781	19496.333
707.909	19397.333
708.038	19369.255
708.166	19280.373
708.294	19280.569
708.422	19208.647
708.550	19174.098
708.678	19122.255
708.806	19221.784
708.934	19066.647
709.063	19153.588
709.191	19039.980
709.319	19066.255
709.447	19123.961
709.575	19063.490
709.703	19071.176
709.831	19162.471
709.959	19107.039
710.088	19141.647
710.216	19236.627
710.344	19143.588
710.472	19314.216
710.600	19359.078
710.728	19284.922
710.856	19303.843
710.984	19394.882
711.113	19348.725
711.241	19402.529
711.369	19509.980
711.497	19397.451
711.625	19433.510
711.753	19448.784
711.881	19399.569
712.009	19522.314
712.138	19503.412
712.266	19486.431
712.394	19477.333
712.522	19411.784
712.650	19504.882
712.778	19548.765
712.906	19509.569
713.034	19449.490
713.163	19523.627
713.291	19488.765
713.419	19520.000
713.547	19496.392
713.675	19399.961
713.803	19435.980
713.931	19470.098
714.059	19475.588
714.188	19545.353
714.316	19505.765
714.444	19494.000
714.572	19581.059
714.700	19465.137
714.828	19522.333
714.956	19552.000
715.084	19532.647
715.213	19566.902
715.341	19546.137
715.469	19551.784
715.597	19683.176
715.725	19542.392
715.853	19548.804
715.981	19544.510
716.109	19622.412
716.238	19594.667
716.366	19601.098
716.494	19617.490
716.622	19613.510
716.750	19523.098
716.878	19643.235
717.006	19583.098
717.134	19442.588
717.263	19448.569
717.391	19507.843
717.519	19412.569
717.647	19466.902
717.775	19406.843
717.903	19387.765
718.031	19323.863
718.159	19264.706
718.288	19272.176
718.416	19275.000
718.544	19213.745
718.672	19243.196
718.800	19178.176
718.928	19158.235
719.056	19139.961
719.184	19169.314
719.313	19138.804
719.441	19160.059
719.569	19118.412
719.697	19194.314
719.825	19205.196
719.953	19140.941
720.081	19062.275
720.209	19024.804
720.338	18965.627
720.466	18913.451
720.594	18931.078
720.722	18945.745
720.850	18900.333
720.978	18765.353
721.106	18738.961
721.234	18752.529
721.363	18695.980
721.491	18589.412
721.619	18565.588
721.747	18548.922
721.875	18562.176
722.003	18481.333
722.131	18409.196
722.259	18353.157
722.388	18491.941
722.516	18265.745
722.644	18296.569
722.772	18242.706
722.900	18192.725
723.028	18156.627
723.156	18214.608
723.284	18140.961
723.413	18098.510
723.541	18031.627
723.669	18010.275
723.797	17961.118
723.925	17948.196
724.053	17889.765
724.181	17791.549
724.309	17941.667
724.438	17868.863
724.566	17956.255
724.694	17796.667
724.822	17770.922
724.950	17811.725
725.078	17764.569
725.206	17708.882
725.334	17713.471
725.463	17684.137
725.591	17708.608
725.719	17837.118
725.847	17648.098
725.975	17614.118
726.103	17662.137
726.231	17577.529
726.359	17539.745
726.488	17655.961
726.616	17460.922
726.744	17512.882
726.872	17497.490
727.000	17573.020
727.128	17507.941
727.256	17603.098
727.384	17590.647
727.513	17509.765
727.641	17472.255
727.769	17541.098
727.897	17569.137
728.025	17513.863
728.153	17452.020
728.281	17501.882
728.409	17474.647
728.538	17452.490
728.666	17435.000
728.794	17459.902
728.922	17421.353
729.050	17410.686
729.178	17495.137
729.306	17492.137
729.434	17492.235
729.563	17447.098
729.691	17462.980
729.819	17452.235
729.947	17538.902
730.075	17467.294
730.203	17439.627
730.331	17454.706
730.459	17435.784
730.588	17438.431
730.716	17525.255
730.844	17466.941
730.972	17508.863
731.100	17444.647
731.228	17531.961
731.356	17532.608
731.484	17508.706
731.613	17554.216
731.741	17536.000
731.869	17549.765
731.997	17563.255
732.125	17606.118
732.253	17628.255
732.381	17620.804
732.509	17662.255
732.638	17600.137
732.766	17579.824
732.894	17657.196
733.022	17712.255
733.150	17683.471
733.278	17719.765
733.406	17645.412
733.534	17718.510
733.663	17688.059
733.791	17742.020
733.919	17749.725
734.047	17732.137
734.175	17757.471
734.303	17695.765
734.431	17771.000
734.559	17762.039
734.688	17723.137
734.816	17727.373
734.944	17770.000
735.072	17741.902
735.200	17826.196
735.328	17723.549
735.456	17731.824
735.584	17783.863
735.713	17765.941
735.841	17748.196
735.969	18005.235
736.097	17733.275
736.225	17778.980
736.353	17763.490
736.481	17683.784
736.609	17791.941
736.738	17720.000
736.866	17682.353
736.994	17708.882
737.122	17730.137
737.250	17769.510
737.378	17737.196
737.506	17627.157
737.634	17680.922
737.763	17740.667
737.891	17766.510
738.019	17667.647
738.147	17831.451
738.275	17694.863
738.403	17761.196
738.531	17697.471
738.659	17686.157
738.788	17661.373
738.916	17769.627
739.044	17689.255
739.172	17630.412
739.300	17685.118
739.428	17633.608
739.556	17563.961
739.684	17582.882
739.813	17653.608
739.941	17637.922
740.069	17538.490
740.197	17530.294
740.325	17553.392
740.453	17611.000
740.581	17590.176
740.709	17488.373
740.838	17455.275
740.966	17426.608
741.094	17474.569
741.222	17450.314
741.350	17482.451
741.478	17426.275
741.606	17328.118
741.734	17344.490
741.863	17376.137
741.991	17349.078
742.119	17333.353
742.247	17489.235
742.375	17328.549
742.503	17312.431
742.631	17240.353
742.759	17269.451
742.888	17242.922
743.016	17207.804
743.144	17135.275
743.272	17175.863
743.400	17235.725
743.528	17196.039
743.656	17250.725
743.784	17383.216
743.913	17182.314
744.041	17159.373
744.169	17123.235
744.297	17316.686
744.425	17053.765
744.553	17004.216
744.681	17075.667
744.809	16926.882
744.938	16990.235
745.066	17021.647
745.194	17008.471
745.322	17066.569
745.450	16967.941
745.578	17088.314
745.706	17042.431
745.834	16960.627
745.963	16957.373
746.091	16964.098
746.219	16930.078
746.347	16966.980
746.475	16895.255
746.603	16837.157
746.731	16850.216
746.859	16931.941
746.988	16824.549
747.116	16866.725
747.244	16832.176
747.372	16798.961
747.500	16779.235
747.628	16847.588
747.756	16805.000
747.884	16876.569
748.013	16875.294
748.141	16751.137
748.269	16749.078
748.397	16786.471
748.525	16776.294
748.653	16787.118
748.781	16855.275
748.909	16755.745
749.038	16843.922
749.166	16833.157
749.294	16905.098
749.422	16789.000
749.550	16849.824
749.678	16813.824
749.806	16814.608
749.934	16829.824
750.063	16792.196
750.191	16884.431
750.319	16753.196
750.447	16818.137
750.575	16839.784
750.703	16781.647
750.831	16757.647
750.959	16835.412
751.088	16828.922
751.216	16771.549
751.344	16716.608
751.472	16775.314
751.600	16756.745
751.728	16788.235
751.856	16797.392
751.984	16746.647
752.113	16789.412
752.241	16722.647
752.369	16759.549
752.497	16867.333
752.625	16720.686
752.753	16662.039
752.881	16681.647
753.009	16675.588
753.138	16664.176
753.266	16623.039
753.394	16614.059
753.522	16686.196
753.650	16688.137
753.778	16676.176
753.906	16656.784
754.034	16635.804
754.163	16590.882
754.291	16782.980
754.419	16655.078
754.547	16562.039
754.675	16647.235
754.803	16627.627
754.931	16584.020
755.059	16622.000
755.188	16686.235
755.316	16574.686
755.444	16658.725
755.572	16545.431
755.700	16541.235
755.828	16548.804
755.956	16621.098
756.084	16529.392
756.213	16529.235
756.341	16522.157
756.469	16507.961
756.597	16494.137
756.725	16511.471
756.853	16527.078
756.981	16580.039
757.109	16515.843
757.238	16478.765
757.366	16433.549
757.494	16426.667
757.622	16431.098
757.750	16488.196
757.878	16456.784
758.006	16452.627
758.134	16461.902
758.263	16377.373
758.391	16416.961
758.519	16311.078
758.647	16383.235
758.775	16338.961
758.903	16342.569
759.031	16340.118
759.159	16334.431
759.288	16431.235
759.416	16207.647
759.544	16267.157
759.672	16306.039
759.800	16316.843
759.928	16247.922
760.056	16310.745
760.184	16237.431
760.313	16131.392
760.441	16189.314
760.569	16122.216
760.697	16191.000
760.825	16202.608
760.953	16221.392
761.081	16160.255
761.209	16156.627
761.338	16125.255
761.466	16112.647
761.594	16262.000
761.722	16215.549
761.850	16026.510
761.978	15968.412
762.106	16043.804
762.234	16021.627
762.363	16007.098
762.491	15840.196
762.619	15934.275
762.747	15989.392
762.875	15892.784
763.003	15922.627
763.131	15891.196
763.259	15838.098
763.388	15845.980
763.516	15824.020
763.644	15838.706
763.772	15804.608
763.900	15761.804
764.028	15783.216
764.156	15847.000
764.284	15710.118
764.413	15767.431
764.541	15809.216
764.669	15734.608
764.797	15774.980
764.925	15731.961
765.053	15615.255
765.181	15616.745
765.309	15706.294
765.438	15638.863
765.566	15743.725
765.694	15651.529
765.822	15823.980
765.950	15675.824
766.078	15605.392
766.206	15601.255
766.334	15631.118
766.463	15548.980
766.591	15580.980
766.719	15643.294
766.847	15641.490
766.975	15542.686
767.103	15530.510
767.231	15554.706
767.359	15515.863
767.488	15501.373
767.616	15475.392
767.744	15490.157
767.872	15540.431
768.000	15442.510
768.128	15495.020
768.256	15482.647
768.384	15501.745
768.513	15436.843
768.641	15465.059
768.769	15503.098
768.897	15452.647
769.025	15550.078
769.153	15412.961
769.281	15479.941
769.409	15416.922
769.538	15422.118
769.666	15434.588
769.794	15422.863
769.922	15536.784
770.050	15466.549
770.178	15447.314
770.306	15443.294
770.434	15363.314
770.563	15419.314
770.691	15442.941
770.819	15338.765
770.947	15369.686
771.075	15281.000
771.203	15264.157
771.331	15403.765
771.459	15247.078
771.588	15255.118
771.716	15234.784
771.844	15249.902
771.972	15238.294
772.100	15143.902
772.228	15187.118
772.356	15271.843
772.484	15165.333
772.613	15165.765
772.741	15146.588
772.869	15278.196
772.997	15177.431
773.125	15240.922
773.253	15261.216
773.381	15134.020
773.509	15137.706
773.638	15170.725
773.766	15135.784
773.894	15064.627
774.022	15124.255
774.150	15081.176
774.278	15129.118
774.406	15073.490
774.534	15169.784
774.663	15085.765
774.791	15057.039
774.919	15077.235
775.047	15065.863
775.175	15042.902
775.303	15117.431
775.431	14969.235
775.559	14997.333
775.688	15034.216
775.816	15047.490
775.944	15008.843
776.072	15094.255
776.200	15018.824
776.328	15047.118
776.456	15038.235
776.584	15036.118
776.713	15041.745
776.841	14965.569
776.969	15063.471
777.097	15053.745
777.225	15081.275
777.353	15046.059
777.481	15027.549
777.609	15020.902
777.738	15006.431
777.866	15031.471
777.994	14997.314
778.122	15052.627
778.250	15112.451
778.378	15094.353
778.506	15075.137
778.634	15003.843
778.763	15157.078
778.891	15102.431
779.019	15147.725
779.147	15055.059
779.275	15116.804
779.403	15086.647
779.531	15085.549
779.659	15068.725
779.788	15097.059
779.916	15071.980
780.044	14985.608
780.172	15089.529
780.300	14995.176
780.428	15055.980
780.556	15092.902
780.684	15050.471
780.813	14992.392
780.941	15014.804
781.069	14960.765
781.197	15039.961
781.325	15145.314
781.453	14950.235
781.581	15008.510
781.709	14940.275
781.838	14984.353
781.966	14922.471
782.094	14909.373
782.222	15039.941
782.350	14978.725
782.478	15008.922
782.606	14902.196
782.734	14933.373
782.863	14894.471
782.991	14892.863
783.119	14976.882
783.247	14951.294
783.375	14874.745
783.503	14896.765
783.631	14905.078
783.759	14804.627
783.888	14860.843
784.016	14838.529
784.144	14871.941
784.272	14831.922
784.400	14845.843
784.528	14877.216
784.656	14861.314
784.784	14755.941
784.913	14722.118
785.041	14795.157
785.169	14781.039
785.297	14704.000
785.425	14694.490
785.553	14741.784
785.681	14693.235
785.809	14809.922
785.938	14684.157
786.066	14635.412
786.194	14639.333
786.322	14634.588
786.450	14560.157
786.578	14573.510
786.706	14616.255
786.834	14565.608
786.963	14560.647
787.091	14468.020
787.219	14430.431
787.347	14459.980
787.475	14461.196
787.603	14523.333
787.731	14461.353
787.859	14489.216
787.988	14604.922
788.116	14523.902
788.244	14500.529
788.372	14416.569
788.500	14433.373
788.628	14414.725
788.756	14430.373
788.884	14472.294
789.013	14378.824
789.141	14400.255
789.269	14389.902
789.397	14282.118
789.525	14385.431
789.653	14349.333
789.781	14303.667
789.909	14261.059
790.038	14264.882
790.166	14179.588
790.294	14120.745
790.422	14138.843
790.550	14078.804
790.678	14114.431
790.806	14044.529
790.934	14092.451
791.063	14014.706
791.191	14056.980
791.319	14025.922
791.447	14042.843
791.575	14005.667
791.703	14001.765
791.831	14049.451
791.959	13936.784
792.088	14014.588
792.216	13915.569
792.344	13881.569
792.472	13811.275
792.600	13867.314
792.728	13777.353
792.856	13903.686
792.984	13800.412
793.113	13821.784
793.241	13767.608
793.369	13754.471
793.497	13718.255
793.625	13845.098
793.753	13773.471
793.881	13700.824
794.009	13700.627
794.138	13637.196
794.266	13680.392
794.394	13669.980
794.522	13723.059
794.650	13624.529
794.778	13751.235
794.906	13641.176
795.034	13658.373
795.163	13607.922
795.291	13648.196
795.419	13751.000
795.547	13576.941
795.675	13580.294
795.803	13686.725
795.931	13531.588
796.059	13511.431
796.188	13545.078
796.316	13489.471
796.444	13607.392
796.572	13545.980
796.700	13552.608
796.828	13480.608
796.956	13472.471
797.084	13385.725
797.213	13348.824
797.341	13380.373
797.469	13369.078
797.597	13386.039
797.725	13344.490
797.853	13291.686
797.981	13289.431
798.109	13294.647
798.238	13179.176
798.366	13310.176
798.494	13154.667
798.622	13242.824
798.750	13257.000
798.878	13179.000
799.006	13164.255
799.134	13121.353
799.263	13072.765
799.391	13096.471
799.519	13053.941
799.647	13036.784
799.775	12990.667
799.903	12992.294
800.031	12951.667
800.159	12978.333
800.288	12900.373
800.416	12905.431
800.544	12843.157
800.672	12753.882
800.800	12806.157
800.928	12781.216
801.056	12742.255
801.184	12772.059
801.313	12764.824
801.441	12715.725
801.569	12706.882
801.697	12653.843
801.825	12641.078
801.953	12637.686
802.081	12670.510
802.209	12626.333
802.338	12621.118
802.466	12526.353
802.594	12565.941
802.722	12547.078
802.850	12455.804
802.978	12486.020
803.106	12417.627
803.234	12521.059
803.363	12407.412
803.491	12410.980
803.619	12404.451
803.747	12346.843
803.875	12277.118
804.003	12326.412
804.131	12332.353
804.259	12281.078
804.388	12284.235
804.516	12260.784
804.644	12246.373
804.772	12235.353
804.900	12234.667
805.028	12230.294
805.156	12188.569
805.284	12211.255
805.413	12245.863
805.541	12217.451
805.669	12184.431
805.797	12121.922
805.925	12087.961
806.053	12051.373
806.181	12154.039
806.309	11991.902
806.438	12001.588
806.566	12036.902
806.694	12044.549
806.822	11958.863
806.950	11965.588
807.078	11876.314
807.206	11949.510
807.334	11886.980
807.463	11847.294
807.591	11843.118
807.719	11933.137
807.847	11826.863
807.975	11835.529
808.103	11742.647
808.231	11843.157
808.359	11762.412
808.488	11737.314
808.616	11675.569
808.744	11705.647
808.872	11707.843
809.000	11686.059
809.128	11733.373
809.256	11577.020
809.384	11561.235
809.513	11488.235
809.641	11527.588
809.769	11505.843
809.897	11512.235
810.025	11537.843
810.153	11443.725
810.281	11526.078
810.409	11451.784
810.538	11450.235
810.666	11486.176
810.794	11435.608
810.922	11424.392
811.050	11471.941
811.178	11424.490
811.306	11400.353
811.434	11445.118
811.563	11369.275
811.691	11397.471
811.819	11314.549
811.947	11336.922
812.075	11268.902
812.203	11359.863
812.331	11283.412
812.459	11277.608
812.588	11216.745
812.716	11225.824
812.844	11156.176
812.972	11145.961
813.100	11139.667
813.228	11144.176
813.356	11123.745
813.484	11157.608
813.613	11152.118
813.741	11168.275
813.869	10628.078
