spectrometer_0_20nm_hybrid_at_650.00nm_cut_at_1184.50Y_01.dat
02.05.2022
11:43:27
cut middle at Y: 1184.50
top cursor: 1210 down cursor: 1159 mean of: 51 lines , 2560 datapoints
wavelength(nm)	intensity[arb. units]
485.997	6124.039
486.125	5599.294
486.253	5533.765
486.381	5545.608
486.510	5589.725
486.638	5708.275
486.766	5654.588
486.894	5699.863
487.022	5791.961
487.150	5787.118
487.278	5762.804
487.406	5794.647
487.535	5838.333
487.663	5873.941
487.791	5828.961
487.919	5881.941
488.047	5851.314
488.175	5898.843
488.303	5866.902
488.431	5914.451
488.560	5971.843
488.688	5972.824
488.816	5965.098
488.944	5996.137
489.072	6048.196
489.200	6027.922
489.328	6095.588
489.456	6131.725
489.585	6110.941
489.713	6135.353
489.841	6130.020
489.969	6171.882
490.097	6204.902
490.225	6211.902
490.353	6274.392
490.481	6246.980
490.610	6282.686
490.738	6308.941
490.866	6387.020
490.994	6335.137
491.122	6383.196
491.250	6384.588
491.378	6399.255
491.506	6502.137
491.635	6456.471
491.763	6448.412
491.891	6512.667
492.019	6545.745
492.147	6521.824
492.275	6492.569
492.403	6503.196
492.531	6647.020
492.660	6587.529
492.788	6638.157
492.916	6642.686
493.044	6557.843
493.172	6657.235
493.300	6665.784
493.428	6648.961
493.556	6721.216
493.685	6747.941
493.813	6806.020
493.941	6839.922
494.069	6860.902
494.197	6882.902
494.325	6949.686
494.453	7108.059
494.581	7016.725
494.710	7084.314
494.838	7096.784
494.966	7207.922
495.094	7162.608
495.222	7251.353
495.350	7267.647
495.478	7316.039
495.606	7344.412
495.735	7370.922
495.863	7391.706
495.991	7406.373
496.119	7440.333
496.247	7485.529
496.375	7442.294
496.503	7465.980
496.631	7480.196
496.760	7430.745
496.888	7496.157
497.016	7451.588
497.144	7460.039
497.272	7446.020
497.400	7463.255
497.528	7374.118
497.656	7379.157
497.785	7400.373
497.913	7320.020
498.041	7301.137
498.169	7355.725
498.297	7300.647
498.425	7435.863
498.553	7323.725
498.681	7328.431
498.810	7366.902
498.938	7306.078
499.066	7315.059
499.194	7423.235
499.322	7385.569
499.450	7394.961
499.578	7396.529
499.706	7432.784
499.835	7445.412
499.963	7453.667
500.091	7443.451
500.219	7468.902
500.347	7528.118
500.475	7518.686
500.603	7523.235
500.731	7544.863
500.860	7614.667
500.988	7637.647
501.116	7637.941
501.244	7692.275
501.372	7736.588
501.500	7719.784
501.628	7774.098
501.756	7768.588
501.885	7862.725
502.013	7829.529
502.141	7921.627
502.269	7839.471
502.397	8033.039
502.525	7943.961
502.653	8054.549
502.781	8004.039
502.910	8039.059
503.038	8015.980
503.166	8080.490
503.294	8059.941
503.422	8091.706
503.550	8100.314
503.678	8090.765
503.806	8076.529
503.935	8097.608
504.063	8075.176
504.191	8068.059
504.319	8076.333
504.447	8043.882
504.575	8110.255
504.703	8099.333
504.831	8044.490
504.960	8033.784
505.088	8073.275
505.216	8096.902
505.344	8171.392
505.472	8133.039
505.600	8116.471
505.728	8197.510
505.856	8199.000
505.985	8206.314
506.113	8228.588
506.241	8245.902
506.369	8239.176
506.497	8219.216
506.625	8299.647
506.753	8282.078
506.881	8308.157
507.010	8293.510
507.138	8277.000
507.266	8389.863
507.394	8342.961
507.522	8417.824
507.650	8401.725
507.778	8431.667
507.906	8497.431
508.035	8474.373
508.163	8509.549
508.291	8456.490
508.419	8559.098
508.547	8572.431
508.675	8614.294
508.803	8575.549
508.931	8632.686
509.060	8637.078
509.188	8681.431
509.316	8653.431
509.444	8695.941
509.572	8818.745
509.700	8772.725
509.828	8835.745
509.956	8801.333
510.085	8815.157
510.213	8842.471
510.341	8827.647
510.469	8879.451
510.597	8922.137
510.725	8947.059
510.853	9006.235
510.981	9035.118
511.110	9012.706
511.238	9039.098
511.366	9070.157
511.494	9069.000
511.622	9084.137
511.750	9153.451
511.878	9205.627
512.006	9147.529
512.135	9243.588
512.263	9255.412
512.391	9305.902
512.519	9329.863
512.647	9351.902
512.775	9389.451
512.903	9420.157
513.031	9398.255
513.160	9414.059
513.288	9485.902
513.416	9446.510
513.544	9509.039
513.672	9466.373
513.800	9524.765
513.928	9520.059
514.056	9527.196
514.185	9504.706
514.313	9490.941
514.441	9597.863
514.569	9491.843
514.697	9496.490
514.825	9481.725
514.953	9486.118
515.081	9456.529
515.210	9502.941
515.338	9574.745
515.466	9444.745
515.594	9475.667
515.722	9434.000
515.850	9412.863
515.978	9414.176
516.106	9402.922
516.235	9381.608
516.363	9410.824
516.491	9367.314
516.619	9435.804
516.747	9542.941
516.875	9503.275
517.003	9485.353
517.131	9460.922
517.260	9421.412
517.388	9551.627
517.516	9521.961
517.644	9540.961
517.772	9633.863
517.900	9589.216
518.028	9702.765
518.156	9708.569
518.284	9764.588
518.413	9767.235
518.541	9796.412
518.669	9808.647
518.797	9866.137
518.925	9840.647
519.053	9888.843
519.181	9885.843
519.309	9871.980
519.438	9964.725
519.566	9996.412
519.694	10010.745
519.822	10043.137
519.950	10053.686
520.078	10107.235
520.206	10185.863
520.334	10217.804
520.463	10154.235
520.591	10251.275
520.719	10250.333
520.847	10275.686
520.975	10241.725
521.103	10352.471
521.231	10286.373
521.359	10459.255
521.488	10384.608
521.616	10384.216
521.744	10364.804
521.872	10396.059
522.000	10318.039
522.128	10308.686
522.256	10323.961
522.384	10316.882
522.513	10324.902
522.641	10339.039
522.769	10417.549
522.897	10374.765
523.025	10348.451
523.153	10335.196
523.281	10382.275
523.409	10328.686
523.538	10393.000
523.666	10338.667
523.794	10383.941
523.922	10367.451
524.050	10417.667
524.178	10407.667
524.306	10414.471
524.434	10486.373
524.563	10527.059
524.691	10667.275
524.819	10543.824
524.947	10586.157
525.075	10678.922
525.203	10672.412
525.331	10775.020
525.459	10876.588
525.588	10869.510
525.716	10979.137
525.844	10971.843
525.972	11121.059
526.100	11082.431
526.228	11151.765
526.356	11185.451
526.484	11279.275
526.613	11254.941
526.741	11371.333
526.869	11384.431
526.997	11467.510
527.125	11454.686
527.253	11486.078
527.381	11540.882
527.509	11523.843
527.638	11609.902
527.766	11664.843
527.894	11680.863
528.022	11759.039
528.150	11661.549
528.278	11806.176
528.406	11780.569
528.534	11732.451
528.663	11816.020
528.791	11924.118
528.919	11834.608
529.047	11979.275
529.175	11830.706
529.303	11940.373
529.431	11845.118
529.559	11945.922
529.688	11876.882
529.816	11861.235
529.944	11977.373
530.072	11927.647
530.200	11895.118
530.328	11927.784
530.456	11874.314
530.584	11895.176
530.713	11872.980
530.841	11896.843
530.969	11845.902
531.097	11856.392
531.225	11875.490
531.353	11992.000
531.481	11890.275
531.609	11991.902
531.738	11878.882
531.866	12046.294
531.994	12015.922
532.122	12053.784
532.250	11950.725
532.378	11948.294
532.506	11938.353
532.634	11971.137
532.763	11932.078
532.891	11945.804
533.019	11954.176
533.147	11969.353
533.275	11963.784
533.403	12028.275
533.531	12059.569
533.659	12024.765
533.788	12067.353
533.916	12054.608
534.044	12098.569
534.172	12120.725
534.300	12145.412
534.428	12139.510
534.556	12359.647
534.684	12173.314
534.813	12206.490
534.941	12169.863
535.069	12237.941
535.197	12195.216
535.325	12246.039
535.453	12250.510
535.581	12302.980
535.709	12194.725
535.838	12280.725
535.966	12286.745
536.094	12325.725
536.222	12295.529
536.350	12304.176
536.478	12294.686
536.606	12373.529
536.734	12369.824
536.863	12378.196
536.991	12436.412
537.119	12446.020
537.247	12383.392
537.375	12570.667
537.503	12387.471
537.631	12414.020
537.759	12427.902
537.888	12417.392
538.016	12627.686
538.144	12551.863
538.272	12542.627
538.400	12573.333
538.528	12509.471
538.656	12580.059
538.784	12580.902
538.913	12665.471
539.041	12683.490
539.169	12679.137
539.297	12648.471
539.425	12771.216
539.553	12737.863
539.681	12814.627
539.809	12840.000
539.938	12821.451
540.066	12844.725
540.194	12897.216
540.322	12987.137
540.450	13019.353
540.578	12972.216
540.706	13068.235
540.834	13031.235
540.963	13195.549
541.091	13139.451
541.219	13133.824
541.347	13304.059
541.475	13242.961
541.603	13278.275
541.731	13300.078
541.859	13285.667
541.988	13310.490
542.116	13579.882
542.244	13364.961
542.372	13536.490
542.500	13375.961
542.628	13503.118
542.756	13405.451
542.884	13454.627
543.013	13424.216
543.141	13484.020
543.269	13460.255
543.397	13309.216
543.525	13399.961
543.653	13403.275
543.781	13333.941
543.909	13344.725
544.038	13397.824
544.166	13359.314
544.294	13460.176
544.422	13233.451
544.550	13258.078
544.678	13308.608
544.806	13223.725
544.934	13197.569
545.063	13235.961
545.191	13258.353
545.319	13134.255
545.447	13027.941
545.575	13039.451
545.703	13129.471
545.831	13023.961
545.959	13004.118
546.088	13041.431
546.216	12977.314
546.344	12950.725
546.472	13119.333
546.600	12966.431
546.728	12953.255
546.856	13013.020
546.984	13008.471
547.113	13148.804
547.241	13106.569
547.369	13229.510
547.497	13203.686
547.625	13200.686
547.753	13173.255
547.881	13077.745
548.009	13143.588
548.138	13171.510
548.266	13114.961
548.394	13210.392
548.522	13109.098
548.650	13242.765
548.778	13178.804
548.906	13152.373
549.034	13207.294
549.163	13145.235
549.291	13123.863
549.419	13213.373
549.547	13458.745
549.675	13372.686
549.803	13500.647
549.931	13544.000
550.059	13642.431
550.188	13776.216
550.316	13795.392
550.444	13960.471
550.572	13922.157
550.700	14023.941
550.828	14112.412
550.956	14140.333
551.084	14254.706
551.213	14238.078
551.341	14302.765
551.469	14272.588
551.597	14350.392
551.725	14458.686
551.853	14397.706
551.981	14446.765
552.109	14423.843
552.238	14465.020
552.366	14528.275
552.494	14477.333
552.622	14479.294
552.750	14500.314
552.878	14545.059
553.006	14607.941
553.134	14609.412
553.263	14568.745
553.391	14633.353
553.519	14719.137
553.647	14610.078
553.775	14640.412
553.903	14727.000
554.031	14664.098
554.159	14665.157
554.288	14736.490
554.416	14707.882
554.544	14763.235
554.672	14781.451
554.800	14695.431
554.928	14744.725
555.056	14754.118
555.184	14746.157
555.313	14740.373
555.441	14679.255
555.569	14698.647
555.697	14713.078
555.825	14672.412
555.953	14736.451
556.081	14680.235
556.209	14739.725
556.338	14739.647
556.466	14859.196
556.594	14719.490
556.722	14790.706
556.850	14785.412
556.978	14671.098
557.106	14680.529
557.234	14709.922
557.363	14760.627
557.491	14729.059
557.619	14712.784
557.747	14723.078
557.875	14718.922
558.003	14726.255
558.131	14724.451
558.259	14768.549
558.388	14725.078
558.516	14745.451
558.644	14713.765
558.772	14807.039
558.900	14765.039
559.028	14751.196
559.156	14780.118
559.284	14659.039
559.413	14729.922
559.541	14716.980
559.669	14731.235
559.797	14778.392
559.925	14740.078
560.053	14809.824
560.181	14732.608
560.309	14814.510
560.438	14815.275
560.566	14820.882
560.694	14713.353
560.822	14958.275
560.950	14779.392
561.078	14801.980
561.206	14926.980
561.334	14763.412
561.463	14736.804
561.591	14843.980
561.719	14804.275
561.847	14746.039
561.975	14757.176
562.103	14783.824
562.231	14829.843
562.359	14688.098
562.488	14825.353
562.616	14754.941
562.744	14826.706
562.872	14850.980
563.000	14765.412
563.128	14763.078
563.256	14824.020
563.384	14976.392
563.513	14758.176
563.641	14814.863
563.769	14890.314
563.897	14868.235
564.025	14917.020
564.153	14943.510
564.281	14978.471
564.409	14964.451
564.538	14982.745
564.666	15026.392
564.794	15044.098
564.922	15048.216
565.050	15125.157
565.178	15081.647
565.306	15154.098
565.434	15137.843
565.563	15316.706
565.691	15217.863
565.819	15394.667
565.947	15205.725
566.075	15204.588
566.203	15262.039
566.331	15277.569
566.459	16092.843
566.588	15338.471
566.716	15341.627
566.844	15311.882
566.972	15360.118
567.100	15506.020
567.228	15482.314
567.356	15558.765
567.484	15530.255
567.613	15581.902
567.741	15602.686
567.869	15518.725
567.997	15628.627
568.125	15690.059
568.253	15806.490
568.381	15635.196
568.509	15727.961
568.638	15728.549
568.766	15804.882
568.894	15781.863
569.022	15738.451
569.150	15840.078
569.278	15762.725
569.406	15905.333
569.534	15933.608
569.663	15859.882
569.791	15862.235
569.919	15920.137
570.047	16008.216
570.175	15913.039
570.303	15924.725
570.431	15884.294
570.559	15977.235
570.688	16094.863
570.816	15918.529
570.944	15994.902
571.072	15887.588
571.200	15872.412
571.328	15927.137
571.456	15966.725
571.584	15925.353
571.713	15958.627
571.841	15985.882
571.969	16105.294
572.097	16053.078
572.225	15863.902
572.353	15906.784
572.481	15844.784
572.609	15883.667
572.738	15896.529
572.866	15847.078
572.994	15807.235
573.122	15857.824
573.250	15903.235
573.378	15756.941
573.506	15816.235
573.634	15841.353
573.763	15836.078
573.891	15828.627
574.019	15861.196
574.147	15751.333
574.275	15862.490
574.403	15833.627
574.531	15832.882
574.659	15748.294
574.788	15746.078
574.916	15879.941
575.044	15758.118
575.172	15750.353
575.300	15695.098
575.428	15712.490
575.556	15719.137
575.684	15702.569
575.813	15692.490
575.941	15750.373
576.069	15723.706
576.197	15798.118
576.325	15695.804
576.453	15708.235
576.581	15781.118
576.709	15817.941
576.838	15803.843
576.966	15895.843
577.094	16067.667
577.222	15957.353
577.350	15922.608
577.478	16047.059
577.606	16055.431
577.734	16061.176
577.863	16198.745
577.991	16204.431
578.119	16334.824
578.247	16353.392
578.375	16463.686
578.503	16432.569
578.631	16438.647
578.759	16518.784
578.888	16704.451
579.016	16466.608
579.144	16488.392
579.272	16596.961
579.400	16659.529
579.528	16616.608
579.656	16771.549
579.784	16671.608
579.913	16780.431
580.041	16919.137
580.169	16862.706
580.297	16883.412
580.425	16924.314
580.553	16997.255
580.681	16996.647
580.809	16998.980
580.938	17069.431
581.066	17151.549
581.194	17161.353
581.322	17174.078
581.450	17288.059
581.578	17328.098
581.706	17422.745
581.834	17448.078
581.963	17455.314
582.091	17466.745
582.219	17518.098
582.347	17517.412
582.475	17542.098
582.603	17572.235
582.731	17709.941
582.859	17640.039
582.988	17780.333
583.116	17749.039
583.244	17809.608
583.372	17808.745
583.500	17838.353
583.628	17939.667
583.756	17921.314
583.884	17943.098
584.013	18029.667
584.141	18049.706
584.269	18106.431
584.397	18185.216
584.525	18098.961
584.653	18188.098
584.781	18123.529
584.909	18078.510
585.038	18151.431
585.166	18110.471
585.294	18216.647
585.422	18232.392
585.550	18221.647
585.678	18190.922
585.806	18237.824
585.934	18196.804
586.063	18184.431
586.191	18226.980
586.319	18210.961
586.447	18208.020
586.575	18185.765
586.703	18187.137
586.831	18124.961
586.959	18167.804
587.088	18090.588
587.216	18099.078
587.344	18119.078
587.472	18300.824
587.600	18117.549
587.728	18174.882
587.856	18092.078
587.984	18117.216
588.113	18242.784
588.241	18158.706
588.369	18170.431
588.497	18198.686
588.625	18210.490
588.753	18378.157
588.881	18223.588
589.009	18210.137
589.138	18293.157
589.266	18221.078
589.394	18296.686
589.522	18260.784
589.650	18389.176
589.778	18353.510
589.906	18400.686
590.034	18378.333
590.163	18428.392
590.291	18440.490
590.419	18396.627
590.547	18532.824
590.675	18515.392
590.803	18446.176
590.931	18380.647
591.059	18387.961
591.188	18393.608
591.316	18353.647
591.444	18384.373
591.572	18439.255
591.700	18420.039
591.828	18464.765
591.956	18433.569
592.084	18400.255
592.213	18425.627
592.341	18377.569
592.469	18338.235
592.597	18349.686
592.725	18256.373
592.853	18268.824
592.981	18294.314
593.109	18314.843
593.238	18212.176
593.366	18158.549
593.494	18157.902
593.622	18094.020
593.750	18042.078
593.878	18117.490
594.006	18018.471
594.134	17976.745
594.263	18028.882
594.391	17881.235
594.519	17849.216
594.647	17864.059
594.775	17791.137
594.903	17774.765
595.031	17784.118
595.159	17756.824
595.288	17763.059
595.416	17710.882
595.544	17683.020
595.672	17601.059
595.800	17710.941
595.928	17602.412
596.056	17543.667
596.184	17548.412
596.313	17638.275
596.441	17571.745
596.569	17567.725
596.697	17443.098
596.825	17327.725
596.953	17362.255
597.081	17397.431
597.209	17336.843
597.338	17334.902
597.466	17322.824
597.594	17307.333
597.722	17457.471
597.850	17314.275
597.978	17348.333
598.106	17469.784
598.234	17471.784
598.363	17396.137
598.491	17553.490
598.619	17422.686
598.747	17450.059
598.875	17591.784
599.003	17518.196
599.131	17615.725
599.259	17666.784
599.388	17609.745
599.516	17671.020
599.644	17786.333
599.772	17870.922
599.900	17726.216
600.028	17730.843
600.156	17826.980
600.284	17773.627
600.413	17790.373
600.541	17863.020
600.669	17997.569
600.797	17881.804
600.925	17984.373
601.053	17968.745
601.181	17940.392
601.309	17923.902
601.438	17937.451
601.566	17917.549
601.694	17924.392
601.822	18124.961
601.950	17923.098
602.078	18010.373
602.206	18040.824
602.334	18048.431
602.463	17943.098
602.591	18021.431
602.719	17905.608
602.847	18122.373
602.975	17919.059
603.103	17899.569
603.231	17942.529
603.359	17884.020
603.488	17883.255
603.616	17864.706
603.744	17936.667
603.872	17947.667
604.000	17931.216
604.128	17914.118
604.256	17893.333
604.384	17947.314
604.513	17978.804
604.641	17929.255
604.769	17946.569
604.897	17870.098
605.025	17750.451
605.153	17820.686
605.281	17860.157
605.409	17804.118
605.538	17797.686
605.666	17750.412
605.794	17739.941
605.922	17720.529
606.050	17696.020
606.178	17738.471
606.306	17664.392
606.434	17674.863
606.563	17657.686
606.691	17672.098
606.819	17630.804
606.947	17633.137
607.075	17569.843
607.203	17567.196
607.331	17571.765
607.459	17575.275
607.588	17514.804
607.716	17595.922
607.844	17546.078
607.972	17510.843
608.100	17417.784
608.228	17388.353
608.356	17417.235
608.484	17367.314
608.613	17380.451
608.741	17292.275
608.869	17290.196
608.997	17361.863
609.125	17300.471
609.253	17190.725
609.381	17204.451
609.509	17135.843
609.638	17135.706
609.766	17109.098
609.894	17114.686
610.022	16993.431
610.150	17114.588
610.278	16955.529
610.406	16957.196
610.534	17001.059
610.663	16888.725
610.791	17023.961
610.919	16794.804
611.047	16830.235
611.175	16791.961
611.303	16802.176
611.431	16773.784
611.559	16828.784
611.688	16730.059
611.816	16737.235
611.944	16685.725
612.072	16654.627
612.200	16655.510
612.328	16786.961
612.456	16614.373
612.584	16802.333
612.713	16592.647
612.841	16658.961
612.969	16602.647
613.097	16571.667
613.225	16579.275
613.353	16545.098
613.481	16537.353
613.609	16528.431
613.738	16482.137
613.866	16593.294
613.994	16587.686
614.122	16559.647
614.250	16467.412
614.378	16506.569
614.506	16512.333
614.634	16555.059
614.763	16480.353
614.891	16546.667
615.019	16489.196
615.147	16552.490
615.275	16488.235
615.403	16477.451
615.531	16420.314
615.659	16471.039
615.788	16419.294
615.916	16486.157
616.044	16403.392
616.172	16515.941
616.300	16377.137
616.428	16421.608
616.556	16333.647
616.684	16374.412
616.813	16323.294
616.941	16310.961
617.069	16288.608
617.197	16490.098
617.325	16278.765
617.453	16322.784
617.581	16345.157
617.709	16256.980
617.838	16298.588
617.966	16356.922
618.094	16337.059
618.222	16384.843
618.350	16471.549
618.478	16371.725
618.606	16483.431
618.734	16422.510
618.863	16422.451
618.991	16416.922
619.119	16469.039
619.247	16435.490
619.375	16499.373
619.503	16532.627
619.631	16690.549
619.759	16543.725
619.888	16476.529
620.016	16626.647
620.144	16663.588
620.272	16553.000
620.400	16626.647
620.528	16602.275
620.656	16678.980
620.784	16654.000
620.913	16669.392
621.041	16667.196
621.169	16664.235
621.297	16663.647
621.425	16685.451
621.553	16680.725
621.681	16756.745
621.809	16734.627
621.938	16727.824
622.066	16791.725
622.194	16726.216
622.322	16734.686
622.450	16749.020
622.578	16707.333
622.706	16718.529
622.834	16707.549
622.963	16776.745
623.091	16690.686
623.219	16697.804
623.347	16753.451
623.475	16674.961
623.603	16631.255
623.731	16686.000
623.859	16720.510
623.988	16733.902
624.116	16745.275
624.244	16793.745
624.372	16756.078
624.500	16772.392
624.628	16751.431
624.756	16791.941
624.884	16884.608
625.013	16962.627
625.141	16787.824
625.269	16714.490
625.397	16835.373
625.525	16870.196
625.653	16717.725
625.781	16885.098
625.909	16731.118
626.038	16748.039
626.166	16750.549
626.294	16705.078
626.422	16692.961
626.550	16713.431
626.678	16716.784
626.806	16665.725
626.934	16707.725
627.063	16696.961
627.191	16704.490
627.319	16750.843
627.447	16730.039
627.575	16738.275
627.703	16779.353
627.831	16884.843
627.959	16761.980
628.088	16813.706
628.216	16840.549
628.344	16710.157
628.472	16785.176
628.600	16922.294
628.728	16753.843
628.856	16720.804
628.984	16723.902
629.113	16756.706
629.241	16760.824
629.369	16709.020
629.497	16781.863
629.625	16760.627
629.753	16661.667
629.881	16703.608
630.009	16643.137
630.138	16680.157
630.266	16612.431
630.394	16779.843
630.522	16789.353
630.650	16569.902
630.778	16486.784
630.906	16502.373
631.034	16465.961
631.163	16514.843
631.291	16471.902
631.419	16405.980
631.547	16295.216
631.675	16300.412
631.803	16248.333
631.931	16269.961
632.059	16308.098
632.188	16141.922
632.316	16114.745
632.444	16203.216
632.572	16116.745
632.700	16118.529
632.828	16095.863
632.956	16019.882
633.084	15969.588
633.213	16055.216
633.341	15933.745
633.469	15981.941
633.597	15987.412
633.725	15948.078
633.853	15917.157
633.981	15847.039
634.109	16028.784
634.238	15804.549
634.366	15766.902
634.494	15757.314
634.622	15702.765
634.750	15681.941
634.878	15631.804
635.006	15651.725
635.134	15540.451
635.263	15655.255
635.391	15526.941
635.519	15544.608
635.647	15540.902
635.775	15504.039
635.903	15448.647
636.031	15324.451
636.159	15356.020
636.288	15324.412
636.416	15333.588
636.544	15261.392
636.672	15176.608
636.800	15237.431
636.928	15197.745
637.056	15285.118
637.184	15176.843
637.313	15198.196
637.441	15144.765
637.569	15291.078
637.697	15281.098
637.825	15216.882
637.953	15259.078
638.081	15246.353
638.209	15321.490
638.338	15347.137
638.466	15394.980
638.594	15458.510
638.722	15461.314
638.850	15548.157
638.978	15498.059
639.106	15530.373
639.234	15512.294
639.363	15538.529
639.491	15631.843
639.619	15743.510
639.747	15717.608
639.875	15686.451
640.003	15757.510
640.131	15811.784
640.259	15792.098
640.388	15916.647
640.516	15900.569
640.644	15873.451
640.772	15942.235
640.900	15843.863
641.028	15862.588
641.156	15851.431
641.284	15789.000
641.413	15997.745
641.541	15895.490
641.669	15863.294
641.797	15877.745
641.925	15837.549
642.053	15964.235
642.181	15810.941
642.309	15769.000
642.438	15767.373
642.566	15798.510
642.694	15854.824
642.822	15706.176
642.950	15731.118
643.078	15740.529
643.206	15698.098
643.334	15724.804
643.463	15752.549
643.591	15673.647
643.719	15724.176
643.847	15677.137
643.975	15680.098
644.103	15668.020
644.231	15709.941
644.359	15653.725
644.488	15667.706
644.616	15614.490
644.744	15675.608
644.872	15663.647
645.000	15715.922
645.128	15635.569
645.256	15603.431
645.384	15607.059
645.513	15592.412
645.641	15602.843
645.769	15596.373
645.897	15612.961
646.025	15616.078
646.153	15502.784
646.281	15576.098
646.409	15464.725
646.538	15570.275
646.666	15476.980
646.794	15445.529
646.922	15443.314
647.050	15404.157
647.178	15384.196
647.306	15598.510
647.434	15375.098
647.563	15297.627
647.691	15310.157
647.819	15344.451
647.947	15175.784
648.075	15197.647
648.203	15170.667
648.331	15222.216
648.459	15137.471
648.588	15070.961
648.716	15191.078
648.844	15102.235
648.972	15034.667
649.100	15118.529
649.228	15059.431
649.356	15124.235
649.484	15033.373
649.613	15055.314
649.741	15023.843
649.869	15026.314
649.997	15037.490
650.125	15026.627
650.253	14911.804
650.381	14906.176
650.509	14863.824
650.638	14803.235
650.766	14975.863
650.894	14790.294
651.022	14736.333
651.150	14777.961
651.278	14789.980
651.406	14749.078
651.534	14693.490
651.663	14686.510
651.791	14892.706
651.919	14660.098
652.047	14629.157
652.175	14721.039
652.303	14679.216
652.431	14618.431
652.559	14609.235
652.688	14570.235
652.816	14553.627
652.944	14490.588
653.072	14508.176
653.200	14478.961
653.328	14488.686
653.456	14374.078
653.584	14500.941
653.713	14419.412
653.841	14476.725
653.969	14355.373
654.097	14321.627
654.225	14342.569
654.353	14367.902
654.481	14305.627
654.609	14374.843
654.738	14343.216
654.866	14324.784
654.994	14313.000
655.122	14309.020
655.250	14414.059
655.378	14204.863
655.506	14260.922
655.634	14243.020
655.763	14048.863
655.891	14109.373
656.019	14040.392
656.147	13998.804
656.275	14022.333
656.403	13963.255
656.531	13946.725
656.659	13961.392
656.788	13940.490
656.916	13882.078
657.044	13833.176
657.172	13820.529
657.300	13990.647
657.428	13782.392
657.556	13814.686
657.684	13705.451
657.813	13710.353
657.941	13610.020
658.069	13585.843
658.197	13556.686
658.325	13606.412
658.453	13474.941
658.581	13406.392
658.709	13370.078
658.838	13474.314
658.966	13364.275
659.094	13362.627
659.222	13238.549
659.350	13176.216
659.478	13267.294
659.606	13177.020
659.734	13157.000
659.863	13017.902
659.991	13017.922
660.119	13017.314
660.247	13108.000
660.375	12900.137
660.503	12833.667
660.631	12897.314
660.759	12824.373
660.888	12763.392
661.016	12710.667
661.144	12655.020
661.272	12657.255
661.400	12638.235
661.528	12633.059
661.656	12542.392
661.784	12492.510
661.913	12553.510
662.041	12590.235
662.169	12501.353
662.297	12636.314
662.425	12541.686
662.553	12575.078
662.681	12429.686
662.809	12465.529
662.938	12354.667
663.066	12425.686
663.194	12399.686
663.322	12423.941
663.450	12369.333
663.578	12366.157
663.706	12524.059
663.834	12331.431
663.963	12294.059
664.091	12312.902
664.219	12308.569
664.347	12367.902
664.475	12347.373
664.603	12231.627
664.731	12197.725
664.859	12175.020
664.988	12249.686
665.116	12154.922
665.244	12178.941
665.372	12203.078
665.500	12255.294
665.628	12152.294
665.756	12122.706
665.884	12172.275
666.013	12136.216
666.141	12153.431
666.269	12166.549
666.397	12149.863
666.525	12137.098
666.653	12141.569
666.781	12246.039
666.909	12134.902
667.038	12177.882
667.166	12132.647
667.294	12126.000
667.422	12127.431
667.550	12094.118
667.678	12095.000
667.806	12147.549
667.934	12063.686
668.063	12109.647
668.191	12133.275
668.319	12150.843
668.447	12070.098
668.575	12092.451
668.703	12059.000
668.831	12058.804
668.959	12054.235
669.088	12145.118
669.216	12050.412
669.344	12029.627
669.472	11999.137
669.600	11970.392
669.728	12048.804
669.856	11966.118
669.984	11951.490
670.113	11863.000
670.241	11817.373
670.369	11855.431
670.497	11883.196
670.625	11813.451
670.753	12050.373
670.881	11972.902
671.009	11831.059
671.138	11788.118
671.266	11767.843
671.394	11784.804
671.522	11788.647
671.650	11662.078
671.778	11589.745
671.906	11625.118
672.034	11705.235
672.163	11580.941
672.291	11608.412
672.419	11594.588
672.547	11586.137
672.675	11503.196
672.803	11514.725
672.931	11420.941
673.059	11423.078
673.188	11366.471
673.316	11360.725
673.444	11358.059
673.572	11508.157
673.700	11355.549
673.828	11369.216
673.956	11346.647
674.084	11254.098
674.213	11273.353
674.341	11207.451
674.469	11207.490
674.597	11177.490
674.725	11223.765
674.853	11174.961
674.981	11144.784
675.109	11085.706
675.238	11064.098
675.366	11056.373
675.494	11028.627
675.622	11086.902
675.750	11130.784
675.878	11045.431
676.006	11063.725
676.134	11013.137
676.263	10992.980
676.391	10994.765
676.519	10909.941
676.647	10952.039
676.775	10890.843
676.903	10984.373
677.031	10910.471
677.159	10895.137
677.288	11127.667
677.416	10941.451
677.544	10921.412
677.672	10940.451
677.800	10896.059
677.928	10888.392
678.056	10939.059
678.184	10925.961
678.313	11014.745
678.441	10871.137
678.569	11074.863
678.697	10880.922
678.825	10868.451
678.953	10946.059
679.081	10884.373
679.209	10879.255
679.338	10906.647
679.466	10879.275
679.594	10887.627
679.722	10885.961
679.850	10861.471
679.978	10902.176
680.106	10932.137
680.234	10915.804
680.363	10920.745
680.491	10889.216
680.619	11157.784
680.747	11003.118
680.875	10980.333
681.003	10967.725
681.131	11044.451
681.259	10961.569
681.388	10987.980
681.516	11114.843
681.644	11005.137
681.772	11223.098
681.900	11089.039
682.028	11120.490
682.156	11129.863
682.284	11169.686
682.413	11229.608
682.541	11150.765
682.669	11188.725
682.797	11265.333
682.925	11280.706
683.053	11309.333
683.181	11298.667
683.309	11345.255
683.438	11372.490
683.566	11476.255
683.694	11492.686
683.822	11485.314
683.950	11519.078
684.078	11528.941
684.206	11632.314
684.334	11628.353
684.463	11740.784
684.591	11632.765
684.719	11680.059
684.847	11667.765
684.975	11816.549
685.103	11734.980
685.231	11868.059
685.359	11723.196
685.488	11815.255
685.616	11831.667
685.744	11834.549
685.872	11826.843
686.000	11932.176
686.128	11876.922
686.256	11919.098
686.384	11929.216
686.513	11902.431
686.641	12040.608
686.769	12023.549
686.897	12075.882
687.025	12022.647
687.153	12108.843
687.281	12023.275
687.409	12094.529
687.538	12107.686
687.666	12087.745
687.794	12086.137
687.922	12065.824
688.050	12036.863
688.178	12182.882
688.306	12162.980
688.434	12102.412
688.563	12097.176
688.691	12114.647
688.819	12264.804
688.947	12194.118
689.075	12234.412
689.203	12191.078
689.331	12195.059
689.459	12200.451
689.588	12219.608
689.716	12246.157
689.844	12247.686
689.972	12285.431
690.100	12290.627
690.228	12364.353
690.356	12331.725
690.484	12418.255
690.613	12324.431
690.741	12361.137
690.869	12359.176
690.997	12360.333
691.125	12620.980
691.253	12600.745
691.381	12427.647
691.509	12429.980
691.638	12501.353
691.766	12544.039
691.894	12611.118
692.022	12617.725
692.150	12647.137
692.278	12649.490
692.406	12703.020
692.534	12741.000
692.663	12773.373
692.791	12876.020
692.919	12881.431
693.047	12873.373
693.175	12883.235
693.303	13047.176
693.431	12961.392
693.559	13054.863
693.688	13162.765
693.816	13078.765
693.944	13138.902
694.072	13160.078
694.200	13187.490
694.328	13229.373
694.456	13361.059
694.584	13289.588
694.713	13378.216
694.841	13349.431
694.969	13436.627
695.097	13624.471
695.225	13467.373
695.353	13649.314
695.481	13571.137
695.609	13791.784
695.738	13706.980
695.866	13712.471
695.994	13759.294
696.122	13994.039
696.250	13943.137
696.378	13940.961
696.506	13925.176
696.634	13946.471
696.763	14038.529
696.891	14030.333
697.019	14104.765
697.147	14240.020
697.275	14187.941
697.403	14179.118
697.531	14267.549
697.659	14317.196
697.788	14504.549
697.916	14444.784
698.044	14504.667
698.172	14531.882
698.300	14660.000
698.428	14566.137
698.556	14662.137
698.684	14702.627
698.813	14829.765
698.941	14865.510
699.069	14854.608
699.197	14849.176
699.325	14879.020
699.453	14913.608
699.581	15039.373
699.709	15044.882
699.838	15011.569
699.966	15022.412
700.094	15157.941
700.222	15327.275
700.350	15301.843
700.478	15284.980
700.606	15360.765
700.734	15344.980
700.863	15340.647
700.991	15428.353
701.119	15409.157
701.247	15430.882
701.375	15532.824
701.503	15496.627
701.631	15508.804
701.759	15575.647
701.888	15626.471
702.016	15761.882
702.144	15654.451
702.272	15728.020
702.400	15752.843
702.528	15854.353
702.656	16018.157
702.784	15969.882
702.913	15982.471
703.041	16008.412
703.169	16144.314
703.297	16028.451
703.425	16056.471
703.553	16130.588
703.681	16133.529
703.809	16158.412
703.938	16112.118
704.066	16293.353
704.194	16234.471
704.322	16152.804
704.450	16249.373
704.578	16284.078
704.706	16401.941
704.834	16406.627
704.963	16390.824
705.091	16317.039
705.219	16454.275
705.347	16427.706
705.475	16378.235
705.603	16466.196
705.731	16452.451
705.859	16496.647
705.988	16517.882
706.116	16523.784
706.244	16486.255
706.372	16676.137
706.500	16551.510
706.628	16695.059
706.756	16705.725
706.884	16704.451
707.013	16809.863
707.141	16729.824
707.269	16814.510
707.397	16710.078
707.525	16782.235
707.653	16754.647
707.781	16785.196
707.909	16756.608
708.038	16839.765
708.166	16813.922
708.294	16878.078
708.422	16800.569
708.550	16815.392
708.678	16792.118
708.806	16963.902
708.934	16827.157
709.063	16930.373
709.191	16837.373
709.319	16878.843
709.447	17055.078
709.575	17061.961
709.703	17031.392
709.831	17215.471
709.959	17104.804
710.088	17283.824
710.216	17350.902
710.344	17344.020
710.472	17410.098
710.600	17537.902
710.728	17553.529
710.856	17585.824
710.984	17770.686
711.113	17747.627
711.241	17861.118
711.369	17916.627
711.497	17922.255
711.625	17983.275
711.753	17990.078
711.881	18026.824
712.009	18195.725
712.138	18127.922
712.266	18137.176
712.394	18156.196
712.522	18166.588
712.650	18269.353
712.778	18271.000
712.906	18328.961
713.034	18293.961
713.163	18418.569
713.291	18395.098
713.419	18544.529
713.547	18447.176
713.675	18493.373
713.803	18489.039
713.931	18498.431
714.059	18538.922
714.188	18590.529
714.316	18668.412
714.444	18634.902
714.572	18821.137
714.700	18657.980
714.828	18701.608
714.956	18806.157
715.084	18760.157
715.213	18850.863
715.341	18868.392
715.469	18960.667
715.597	19053.765
715.725	18930.098
715.853	18972.941
715.981	18995.333
716.109	19032.706
716.238	19060.471
716.366	19144.824
716.494	19265.569
716.622	19215.020
716.750	19246.000
716.878	19299.843
717.006	19272.843
717.134	19268.137
717.263	19258.961
717.391	19403.137
717.519	19345.373
717.647	19410.882
717.775	19342.824
717.903	19372.176
718.031	19302.824
718.159	19301.686
718.288	19339.392
718.416	19387.529
718.544	19355.314
718.672	19390.745
718.800	19439.431
718.928	19470.353
719.056	19353.176
719.184	19446.510
719.313	19376.216
719.441	19387.373
719.569	19364.294
719.697	19444.569
719.825	19400.765
719.953	19519.804
720.081	19447.235
720.209	19484.667
720.338	19480.078
720.466	19471.765
720.594	19441.235
720.722	19509.529
720.850	19497.176
720.978	19447.588
721.106	19450.843
721.234	19474.235
721.363	19472.588
721.491	19357.275
721.619	19378.098
721.747	19365.216
721.875	19382.549
722.003	19369.784
722.131	19359.294
722.259	19363.235
722.388	19494.765
722.516	19426.490
722.644	19404.373
722.772	19450.275
722.900	19397.667
723.028	19348.667
723.156	19382.686
723.284	19396.569
723.413	19402.157
723.541	19405.863
723.669	19435.471
723.797	19425.137
723.925	19452.647
724.053	19438.392
724.181	19385.529
724.309	19484.549
724.438	19457.706
724.566	19575.608
724.694	19441.765
724.822	19453.235
724.950	19531.980
725.078	19487.706
725.206	19489.392
725.334	19470.667
725.463	19466.333
725.591	19542.804
725.719	19670.020
725.847	19491.824
725.975	19531.824
726.103	19559.725
726.231	19564.431
726.359	19587.529
726.488	19820.706
726.616	19592.137
726.744	19612.863
726.872	19644.647
727.000	19720.373
727.128	19684.275
727.256	19786.529
727.384	19736.667
727.513	19722.216
727.641	19701.882
727.769	19729.922
727.897	19736.431
728.025	19779.510
728.153	19755.510
728.281	19853.059
728.409	19776.922
728.538	19865.745
728.666	19864.471
728.794	19887.353
728.922	19878.157
729.050	19917.961
729.178	19941.765
729.306	19924.157
729.434	20016.431
729.563	20003.608
729.691	19950.314
729.819	20046.510
729.947	20112.216
730.075	20084.431
730.203	20052.294
730.331	19998.882
730.459	20005.333
730.588	20057.686
730.716	20147.471
730.844	20075.392
730.972	20166.255
731.100	20226.216
731.228	20289.392
731.356	20360.765
731.484	20337.941
731.613	20379.804
731.741	20359.000
731.869	20428.235
731.997	20402.137
732.125	20512.706
732.253	20546.922
732.381	20623.216
732.509	20673.137
732.638	20604.235
732.766	20613.216
732.894	20680.235
733.022	20814.353
733.150	20768.196
733.278	20739.510
733.406	20790.667
733.534	20742.392
733.663	20776.059
733.791	20917.784
733.919	20956.314
734.047	20874.059
734.175	20980.314
734.303	20918.059
734.431	20958.118
734.559	21066.686
734.688	21023.451
734.816	20978.373
734.944	21119.451
735.072	21113.804
735.200	21188.902
735.328	21156.941
735.456	21221.275
735.584	21265.196
735.713	21374.529
735.841	21263.176
735.969	21474.471
736.097	21278.333
736.225	21251.059
736.353	21274.118
736.481	21236.176
736.609	21325.020
736.738	21238.745
736.866	21183.725
736.994	21323.569
737.122	21238.667
737.250	21295.451
737.378	21226.137
737.506	21128.314
737.634	21171.961
737.763	21250.431
737.891	21252.569
738.019	21229.686
738.147	21392.706
738.275	21222.098
738.403	21238.725
738.531	21188.431
738.659	21171.902
738.788	21183.255
738.916	21199.510
739.044	21216.706
739.172	21125.216
739.300	21141.039
739.428	21106.176
739.556	21047.059
739.684	21052.000
739.813	21138.176
739.941	21058.549
740.069	21004.961
740.197	20933.196
740.325	20966.608
740.453	20995.020
740.581	20920.490
740.709	20912.137
740.838	20845.451
740.966	20800.961
741.094	20821.412
741.222	20809.569
741.350	20917.490
741.478	20818.667
741.606	20771.882
741.734	20834.824
741.863	20839.431
741.991	20799.176
742.119	20841.314
742.247	20995.490
742.375	20834.706
742.503	20815.784
742.631	20848.137
742.759	20837.549
742.888	20883.471
743.016	20814.549
743.144	20810.510
743.272	20807.529
743.400	20988.275
743.528	20835.529
743.656	20915.353
743.784	21113.922
743.913	20943.157
744.041	20906.804
744.169	20956.216
744.297	21121.000
744.425	20960.216
744.553	20882.176
744.681	20895.863
744.809	20854.686
744.938	20854.039
745.066	20788.647
745.194	20846.098
745.322	20943.882
745.450	20847.863
745.578	20807.686
745.706	20852.078
745.834	20842.471
745.963	20845.353
746.091	20952.510
746.219	20858.510
746.347	20902.667
746.475	20813.765
746.603	20865.059
746.731	20867.255
746.859	20954.647
746.988	20960.843
747.116	21068.647
747.244	21012.431
747.372	21080.353
747.500	21060.275
747.628	21136.941
747.756	21089.804
747.884	21212.529
748.013	21317.804
748.141	21232.824
748.269	21241.471
748.397	21260.667
748.525	21386.333
748.653	21424.216
748.781	21510.039
748.909	21463.725
749.038	21570.510
749.166	21549.176
749.294	21674.314
749.422	21580.529
749.550	21622.157
749.678	21580.902
749.806	21681.765
749.934	21790.961
750.063	21726.667
750.191	21903.941
750.319	21771.176
750.447	21768.255
750.575	21889.431
750.703	21755.216
750.831	21777.000
750.959	21893.922
751.088	21846.157
751.216	21851.255
751.344	21809.804
751.472	21751.451
751.600	21815.863
751.728	21945.059
751.856	21885.941
751.984	21830.118
752.113	21883.294
752.241	21863.471
752.369	21900.725
752.497	21989.824
752.625	21819.078
752.753	21728.118
752.881	21798.608
753.009	21734.667
753.138	21781.980
753.266	21754.118
753.394	21722.431
753.522	21792.961
753.650	21677.314
753.778	21773.980
753.906	21772.902
754.034	21762.824
754.163	21802.059
754.291	21969.608
754.419	21885.725
754.547	21819.667
754.675	21797.235
754.803	21840.824
754.931	21843.412
755.059	21870.294
755.188	21870.765
755.316	21825.176
755.444	21824.843
755.572	21833.275
755.700	21909.922
755.828	21855.333
755.956	21851.980
756.084	21926.471
756.213	21950.275
756.341	21952.961
756.469	21944.549
756.597	22063.314
756.725	22016.314
756.853	22075.490
756.981	22083.745
757.109	22095.451
757.238	22008.824
757.366	22149.510
757.494	22158.961
757.622	22143.843
757.750	22174.824
757.878	22144.686
758.006	22136.529
758.134	22220.745
758.263	22196.078
758.391	22233.745
758.519	22240.529
758.647	22306.706
758.775	22331.902
758.903	22339.588
759.031	22416.157
759.159	22368.608
759.288	22624.431
759.416	22458.510
759.544	22458.196
759.672	22500.667
759.800	22586.255
759.928	22521.863
760.056	22681.863
760.184	22523.608
760.313	22613.196
760.441	22639.471
760.569	22623.725
760.697	22684.922
760.825	22742.765
760.953	22769.451
761.081	22833.275
761.209	22823.059
761.338	22834.784
761.466	22927.706
761.594	23033.078
761.722	22936.137
761.850	22866.000
761.978	22848.471
762.106	22855.569
762.234	22850.529
762.363	22848.647
762.491	22884.490
762.619	22911.804
762.747	22945.196
762.875	22913.098
763.003	22961.118
763.131	22888.980
763.259	22926.902
763.388	22997.294
763.516	22977.608
763.644	22942.275
763.772	22935.098
763.900	23067.373
764.028	23021.412
764.156	23078.333
764.284	23020.784
764.413	23091.569
764.541	23195.255
764.669	23136.137
764.797	23166.098
764.925	23076.745
765.053	23051.412
765.181	23100.569
765.309	23117.980
765.438	23063.725
765.566	23175.235
765.694	23151.588
765.822	23398.098
765.950	23185.882
766.078	23159.941
766.206	23117.529
766.334	23128.118
766.463	23161.784
766.591	23155.745
766.719	23136.510
766.847	23139.353
766.975	23113.216
767.103	23102.765
767.231	23117.294
767.359	23104.745
767.488	23071.647
767.616	23045.216
767.744	23101.667
767.872	23106.098
768.000	23102.608
768.128	23177.294
768.256	23163.569
768.384	23082.608
768.513	23153.784
768.641	23093.353
768.769	23197.039
768.897	23170.392
769.025	23273.608
769.153	23198.706
769.281	23260.471
769.409	23182.922
769.538	23169.020
769.666	23220.588
769.794	23144.078
769.922	23321.608
770.050	23174.667
770.178	23160.608
770.306	23140.843
770.434	23158.471
770.563	23153.608
770.691	23207.569
770.819	23112.373
770.947	23247.882
771.075	23134.765
771.203	23164.765
771.331	23259.471
771.459	23127.353
771.588	23111.373
771.716	23026.667
771.844	23044.627
771.972	22997.980
772.100	22942.843
772.228	22951.059
772.356	23034.216
772.484	22823.196
772.613	22917.078
772.741	22796.902
772.869	22999.137
772.997	22862.529
773.125	22975.333
773.253	22946.000
773.381	22821.353
773.509	22884.745
773.638	22894.627
773.766	22814.275
773.894	22792.000
774.022	22852.392
774.150	22843.902
774.278	22729.490
774.406	22739.784
774.534	22818.294
774.663	22695.745
774.791	22661.392
774.919	22723.961
775.047	22592.255
775.175	22632.980
775.303	22712.255
775.431	22506.137
775.559	22505.157
775.688	22556.902
775.816	22609.510
775.944	22502.824
776.072	22582.863
776.200	22515.588
776.328	22521.529
776.456	22467.157
776.584	22505.118
776.713	22457.275
776.841	22406.922
776.969	22439.980
777.097	22497.765
777.225	22396.196
777.353	22387.627
777.481	22369.412
777.609	22331.078
777.738	22340.549
777.866	22446.235
777.994	22379.922
778.122	22414.020
778.250	22466.980
778.378	22396.843
778.506	22355.451
778.634	22302.392
778.763	22466.255
778.891	22360.451
779.019	22371.941
779.147	22360.627
779.275	22384.569
779.403	22341.039
779.531	22228.471
779.659	22236.412
779.788	22237.294
779.916	22215.627
780.044	22187.020
780.172	22236.020
780.300	22107.431
780.428	22127.863
780.556	22256.451
780.684	22048.490
780.813	22014.882
780.941	21890.569
781.069	21912.275
781.197	21961.275
781.325	22036.196
781.453	21964.804
781.581	21885.294
781.709	21833.137
781.838	21783.078
781.966	21667.412
782.094	21658.196
782.222	21840.569
782.350	21693.196
782.478	21688.333
782.606	21625.490
782.734	21691.980
782.863	21580.784
782.991	21493.392
783.119	21562.137
783.247	21487.706
783.375	21435.627
783.503	21458.922
783.631	21495.863
783.759	21369.608
783.888	21408.863
784.016	21343.529
784.144	21323.294
784.272	21230.314
784.400	21297.784
784.528	21252.510
784.656	21298.706
784.784	21185.176
784.913	21083.588
785.041	21117.118
785.169	21059.373
785.297	20986.039
785.425	20922.000
785.553	20962.961
785.681	20874.412
785.809	20971.490
785.938	20845.039
786.066	20844.529
786.194	20749.569
786.322	20677.529
786.450	20708.784
786.578	20643.784
786.706	20644.196
786.834	20651.529
786.963	20613.529
787.091	20525.059
787.219	20505.667
787.347	20453.255
787.475	20465.196
787.603	20475.627
787.731	20444.510
787.859	20410.176
787.988	20515.569
788.116	20486.392
788.244	20477.804
788.372	20257.902
788.500	20366.020
788.628	20330.451
788.756	20200.314
788.884	20295.392
789.013	20240.353
789.141	20225.882
789.269	20170.196
789.397	20147.039
789.525	20198.588
789.653	20140.961
789.781	20070.569
789.909	20064.039
790.038	19993.980
790.166	19979.059
790.294	19818.098
790.422	19834.588
790.550	19728.549
790.678	19699.235
790.806	19586.176
790.934	19615.176
791.063	19563.078
791.191	19535.588
791.319	19385.039
791.447	19394.902
791.575	19333.255
791.703	19263.667
791.831	19289.804
791.959	19229.392
792.088	19230.471
792.216	19155.235
792.344	19065.392
792.472	19017.176
792.600	19077.784
792.728	18940.353
792.856	19006.020
792.984	18846.627
793.113	18948.078
793.241	18847.000
793.369	18787.471
793.497	18835.843
793.625	18826.373
793.753	18769.529
793.881	18653.588
794.009	18692.333
794.138	18619.176
794.266	18657.471
794.394	18621.941
794.522	18585.882
794.650	18493.176
794.778	18510.412
794.906	18434.451
795.034	18436.294
795.163	18406.608
795.291	18335.353
795.419	18428.137
795.547	18304.471
795.675	18291.353
795.803	18325.529
795.931	18224.020
796.059	18167.490
796.188	18184.529
796.316	18133.725
796.444	18180.549
796.572	18143.824
796.700	18129.667
796.828	18035.078
796.956	17987.000
797.084	17915.000
797.213	17858.000
797.341	17808.373
797.469	17803.961
797.597	17782.451
797.725	17715.490
797.853	17755.745
797.981	17634.098
798.109	17605.961
798.238	17440.961
798.366	17549.882
798.494	17383.627
798.622	17453.647
798.750	17488.216
798.878	17368.176
799.006	17335.431
799.134	17309.333
799.263	17230.176
799.391	17170.412
799.519	17140.471
799.647	17068.882
799.775	17117.275
799.903	17009.627
800.031	16957.706
800.159	16960.608
800.288	16893.314
800.416	16895.902
800.544	16807.137
800.672	16751.098
800.800	16779.882
800.928	16751.196
801.056	16718.961
801.184	16767.784
801.313	16706.059
801.441	16670.353
801.569	16585.745
801.697	16588.725
801.825	16595.373
801.953	16573.804
802.081	16572.431
802.209	16484.980
802.338	16505.569
802.466	16463.392
802.594	16415.216
802.722	16330.118
802.850	16279.686
802.978	16300.392
803.106	16288.510
803.234	16337.078
803.363	16179.000
803.491	16240.020
803.619	16166.412
803.747	16098.784
803.875	16054.843
804.003	16039.902
804.131	16047.078
804.259	16028.176
804.388	16003.922
804.516	15961.882
804.644	15934.176
804.772	15935.098
804.900	15900.765
805.028	15891.098
805.156	15868.843
805.284	15879.980
805.413	15831.157
805.541	15851.824
805.669	15766.902
805.797	15776.569
805.925	15651.804
806.053	15636.059
806.181	15676.373
806.309	15590.902
806.438	15554.902
806.566	15609.706
806.694	15564.353
806.822	15469.078
806.950	15470.255
807.078	15428.745
807.206	15452.980
807.334	15390.647
807.463	15371.412
807.591	15304.529
807.719	15318.706
807.847	15290.059
807.975	15287.824
808.103	15195.039
808.231	15216.882
808.359	15087.686
808.488	15034.020
808.616	15051.510
808.744	14983.725
808.872	14953.745
809.000	14937.706
809.128	14974.353
809.256	14803.353
809.384	14746.059
809.513	14743.863
809.641	14744.863
809.769	14689.863
809.897	14700.961
810.025	14658.059
810.153	14643.176
810.281	14612.176
810.409	14570.235
810.538	14559.961
810.666	14433.333
810.794	14491.431
810.922	14528.804
811.050	14519.039
811.178	14523.824
811.306	14343.294
811.434	14392.549
811.563	14343.784
811.691	14373.196
811.819	14322.451
811.947	14299.804
812.075	14250.745
812.203	14288.333
812.331	14234.490
812.459	14259.039
812.588	14178.176
812.716	14157.118
812.844	14031.863
812.972	14049.510
813.100	14033.941
813.228	13981.941
813.356	13992.667
813.484	13960.569
813.613	13934.078
813.741	13832.961
813.869	12997.941
