spectrometer_0_70nm_einzel_at_650.00nm_cut_at_1184.50Y_01.dat
02.05.2022
11:41:36
cut middle at Y: 1184.50
top cursor: 1210 down cursor: 1159 mean of: 51 lines , 2560 datapoints
wavelength(nm)	intensity[arb. units]
485.997	6235.471
486.125	5720.765
486.253	5651.137
486.381	5642.510
486.510	5731.137
486.638	5832.922
486.766	5835.961
486.894	5861.078
487.022	5870.314
487.150	5877.667
487.278	5876.255
487.406	5914.020
487.535	5936.843
487.663	5974.765
487.791	5965.980
487.919	6002.412
488.047	5957.647
488.175	6045.118
488.303	6046.863
488.431	6063.961
488.560	6063.961
488.688	6093.353
488.816	6109.569
488.944	6147.137
489.072	6123.314
489.200	6151.608
489.328	6179.588
489.456	6253.686
489.585	6225.667
489.713	6251.784
489.841	6236.216
489.969	6266.686
490.097	6274.686
490.225	6324.235
490.353	6413.941
490.481	6377.588
490.610	6391.549
490.738	6428.373
490.866	6516.843
490.994	6456.784
491.122	6534.196
491.250	6530.275
491.378	6562.961
491.506	6613.745
491.635	6544.706
491.763	6604.784
491.891	6601.392
492.019	6671.039
492.147	6635.882
492.275	6618.765
492.403	6651.627
492.531	6778.588
492.660	6718.863
492.788	6730.431
492.916	6753.902
493.044	6713.294
493.172	6788.059
493.300	6784.922
493.428	6787.667
493.556	6852.255
493.685	6907.392
493.813	6921.216
493.941	6955.235
494.069	6955.471
494.197	7029.275
494.325	7052.843
494.453	7225.275
494.581	7189.078
494.710	7235.176
494.838	7259.569
494.966	7339.843
495.094	7319.078
495.222	7417.451
495.350	7428.725
495.478	7441.961
495.606	7477.765
495.735	7506.431
495.863	7555.020
495.991	7573.843
496.119	7617.569
496.247	7640.490
496.375	7572.765
496.503	7604.510
496.631	7597.804
496.760	7621.667
496.888	7617.314
497.016	7612.412
497.144	7624.784
497.272	7599.725
497.400	7585.529
497.528	7549.627
497.656	7502.647
497.785	7521.569
497.913	7482.333
498.041	7470.078
498.169	7488.078
498.297	7410.471
498.425	7601.510
498.553	7474.314
498.681	7445.098
498.810	7529.451
498.938	7460.255
499.066	7506.059
499.194	7576.255
499.322	7581.843
499.450	7509.824
499.578	7563.843
499.706	7592.000
499.835	7609.216
499.963	7608.706
500.091	7668.588
500.219	7667.020
500.347	7708.882
500.475	7725.020
500.603	7706.294
500.731	7723.902
500.860	7760.961
500.988	7832.294
501.116	7793.176
501.244	7859.725
501.372	7929.137
501.500	7938.686
501.628	7974.314
501.756	7981.392
501.885	8064.431
502.013	7984.529
502.141	8062.471
502.269	8071.118
502.397	8186.137
502.525	8139.765
502.653	8189.824
502.781	8187.216
502.910	8173.922
503.038	8233.157
503.166	8218.000
503.294	8251.588
503.422	8293.059
503.550	8282.961
503.678	8249.804
503.806	8288.392
503.935	8273.686
504.063	8267.510
504.191	8299.412
504.319	8310.137
504.447	8244.078
504.575	8273.490
504.703	8302.667
504.831	8229.118
504.960	8257.745
505.088	8272.784
505.216	8373.745
505.344	8416.431
505.472	8303.098
505.600	8291.451
505.728	8407.882
505.856	8369.804
505.985	8397.863
506.113	8446.843
506.241	8403.980
506.369	8430.235
506.497	8435.353
506.625	8544.725
506.753	8476.255
506.881	8524.176
507.010	8505.529
507.138	8510.961
507.266	8580.667
507.394	8552.765
507.522	8650.333
507.650	8614.549
507.778	8615.000
507.906	8660.333
508.035	8659.490
508.163	8677.176
508.291	8712.647
508.419	8807.294
508.547	8799.059
508.675	8799.961
508.803	8769.980
508.931	8827.961
509.060	8860.843
509.188	8881.882
509.316	8882.941
509.444	8908.020
509.572	9057.765
509.700	8982.627
509.828	9012.510
509.956	9048.510
510.085	9020.157
510.213	9065.725
510.341	9038.843
510.469	9137.882
510.597	9141.078
510.725	9171.000
510.853	9244.804
510.981	9246.353
511.110	9228.353
511.238	9274.039
511.366	9276.627
511.494	9317.137
511.622	9357.804
511.750	9439.353
511.878	9445.608
512.006	9443.647
512.135	9519.627
512.263	9562.686
512.391	9583.745
512.519	9575.255
512.647	9632.333
512.775	9618.216
512.903	9683.431
513.031	9702.118
513.160	9711.765
513.288	9789.392
513.416	9731.824
513.544	9840.882
513.672	9793.373
513.800	9835.431
513.928	9770.510
514.056	9798.353
514.185	9811.255
514.313	9756.863
514.441	9857.078
514.569	9779.961
514.697	9792.922
514.825	9797.745
514.953	9804.431
515.081	9762.471
515.210	9762.098
515.338	9846.784
515.466	9686.255
515.594	9742.490
515.722	9710.882
515.850	9724.863
515.978	9643.980
516.106	9686.294
516.235	9691.059
516.363	9685.157
516.491	9647.098
516.619	9714.843
516.747	9815.745
516.875	9780.020
517.003	9714.275
517.131	9759.569
517.260	9733.725
517.388	9810.020
517.516	9807.608
517.644	9839.529
517.772	9945.706
517.900	9883.451
518.028	9981.922
518.156	9963.745
518.284	9980.569
518.413	9991.059
518.541	10105.902
518.669	10110.882
518.797	10176.745
518.925	10153.549
519.053	10199.627
519.181	10205.863
519.309	10225.216
519.438	10280.725
519.566	10305.588
519.694	10316.235
519.822	10436.078
519.950	10385.804
520.078	10467.490
520.206	10502.294
520.334	10559.059
520.463	10550.431
520.591	10567.275
520.719	10574.706
520.847	10656.333
520.975	10634.686
521.103	10649.098
521.231	10669.529
521.359	10824.961
521.488	10725.255
521.616	10744.294
521.744	10659.471
521.872	10728.098
522.000	10692.647
522.128	10656.431
522.256	10693.725
522.384	10679.373
522.513	10684.745
522.641	10676.294
522.769	10752.000
522.897	10801.176
523.025	10700.235
523.153	10711.510
523.281	10747.039
523.409	10669.235
523.538	10777.882
523.666	10623.000
523.794	10769.686
523.922	10778.529
524.050	10755.843
524.178	10740.961
524.306	10835.078
524.434	10837.118
524.563	10916.157
524.691	11057.824
524.819	10951.216
524.947	11014.098
525.075	11039.627
525.203	11117.118
525.331	11143.961
525.459	11250.353
525.588	11279.039
525.716	11363.098
525.844	11394.902
525.972	11497.255
526.100	11495.490
526.228	11584.647
526.356	11591.529
526.484	11729.392
526.613	11703.471
526.741	11806.294
526.869	11784.235
526.997	11887.706
527.125	11919.647
527.253	11949.000
527.381	12017.490
527.509	12035.980
527.638	12054.137
527.766	12183.549
527.894	12121.471
528.022	12219.765
528.150	12154.039
528.278	12270.098
528.406	12230.118
528.534	12239.275
528.663	12272.961
528.791	12410.725
528.919	12390.588
529.047	12467.059
529.175	12349.510
529.303	12349.588
529.431	12361.922
529.559	12413.961
529.688	12360.804
529.816	12392.353
529.944	12408.392
530.072	12417.196
530.200	12388.451
530.328	12425.765
530.456	12401.196
530.584	12365.020
530.713	12371.725
530.841	12381.412
530.969	12390.824
531.097	12310.686
531.225	12382.941
531.353	12499.059
531.481	12390.961
531.609	12518.608
531.738	12350.314
531.866	12534.490
531.994	12465.392
532.122	12590.980
532.250	12495.471
532.378	12451.294
532.506	12466.216
532.634	12503.490
532.763	12468.059
532.891	12482.294
533.019	12439.627
533.147	12514.078
533.275	12481.824
533.403	12577.000
533.531	12578.961
533.659	12552.941
533.788	12617.804
533.916	12553.235
534.044	12683.549
534.172	12703.353
534.300	12699.647
534.428	12663.627
534.556	12931.588
534.684	12785.941
534.813	12736.804
534.941	12741.706
535.069	12752.000
535.197	12717.549
535.325	12799.078
535.453	12792.412
535.581	12880.843
535.709	12813.118
535.838	12848.961
535.966	12896.255
536.094	12879.922
536.222	12906.137
536.350	12880.392
536.478	12908.490
536.606	12988.294
536.734	12984.373
536.863	12976.157
536.991	13025.196
537.119	13034.549
537.247	13033.843
537.375	13141.373
537.503	13028.549
537.631	13053.490
537.759	13058.667
537.888	13079.588
538.016	13243.510
538.144	13203.118
538.272	13140.882
538.400	13160.549
538.528	13139.216
538.656	13223.176
538.784	13232.275
538.913	13364.667
539.041	13332.765
539.169	13282.627
539.297	13275.627
539.425	13414.118
539.553	13417.902
539.681	13472.608
539.809	13505.314
539.938	13475.608
540.066	13519.196
540.194	13556.078
540.322	13719.922
540.450	13719.902
540.578	13685.843
540.706	13789.980
540.834	13731.333
540.963	13876.941
541.091	13800.725
541.219	13847.863
541.347	13976.706
541.475	13966.588
541.603	13947.627
541.731	14007.686
541.859	14013.510
541.988	14065.902
542.116	14287.706
542.244	14140.980
542.372	14320.902
542.500	14099.706
542.628	14215.667
542.756	14183.725
542.884	14191.314
543.013	14172.824
543.141	14196.216
543.269	14186.020
543.397	14086.078
543.525	14123.941
543.653	14248.020
543.781	14069.000
543.909	14033.373
544.038	14135.922
544.166	14103.098
544.294	14158.255
544.422	13953.980
544.550	14027.745
544.678	14006.882
544.806	13932.412
544.934	13921.020
545.063	13952.784
545.191	14038.569
545.319	13911.196
545.447	13817.176
545.575	13825.196
545.703	13806.941
545.831	13814.980
545.959	13720.039
546.088	13724.392
546.216	13729.275
546.344	13701.863
546.472	13874.137
546.600	13750.216
546.728	13766.569
546.856	13787.686
546.984	13796.922
547.113	13876.784
547.241	13870.510
547.369	13913.745
547.497	13954.824
547.625	13962.922
547.753	13938.549
547.881	13886.275
548.009	13872.608
548.138	14013.647
548.266	13923.137
548.394	14058.569
548.522	13880.745
548.650	14029.843
548.778	13991.843
548.906	13905.529
549.034	14026.961
549.163	13931.333
549.291	13940.843
549.419	14002.745
549.547	14225.510
549.675	14265.098
549.803	14308.843
549.931	14391.098
550.059	14493.039
550.188	14656.471
550.316	14687.412
550.444	14841.804
550.572	14828.235
550.700	14887.745
550.828	14989.804
550.956	15061.765
551.084	15159.333
551.213	15143.941
551.341	15235.686
551.469	15244.843
551.597	15380.490
551.725	15412.569
551.853	15344.353
551.981	15425.941
552.109	15406.294
552.238	15453.804
552.366	15474.490
552.494	15458.137
552.622	15416.216
552.750	15473.333
552.878	15528.137
553.006	15615.392
553.134	15559.608
553.263	15575.961
553.391	15565.039
553.519	15748.118
553.647	15617.353
553.775	15640.000
553.903	15766.078
554.031	15660.922
554.159	15699.627
554.288	15750.176
554.416	15668.216
554.544	15779.765
554.672	15755.451
554.800	15764.961
554.928	15698.843
555.056	15690.451
555.184	15716.608
555.313	15722.431
555.441	15731.765
555.569	15737.627
555.697	15819.137
555.825	15743.824
555.953	15772.980
556.081	15710.922
556.209	15778.412
556.338	15853.275
556.466	15967.745
556.594	15793.647
556.722	15876.353
556.850	15918.784
556.978	15772.118
557.106	15810.235
557.234	15830.078
557.363	15834.294
557.491	15863.725
557.619	15816.000
557.747	15850.549
557.875	15820.333
558.003	15839.686
558.131	15838.980
558.259	15825.569
558.388	15828.020
558.516	15819.412
558.644	15831.843
558.772	15974.314
558.900	15836.294
559.028	15892.137
559.156	15878.020
559.284	15848.549
559.413	15842.314
559.541	15861.647
559.669	15908.647
559.797	15925.451
559.925	15845.078
560.053	15947.020
560.181	15906.353
560.309	15944.529
560.438	15947.275
560.566	15973.647
560.694	15837.784
560.822	16076.686
560.950	15918.235
561.078	15888.608
561.206	16075.255
561.334	15873.059
561.463	15909.569
561.591	16021.275
561.719	15935.529
561.847	15974.353
561.975	15894.314
562.103	15951.529
562.231	16017.706
562.359	15906.588
562.488	16018.373
562.616	16045.980
562.744	16026.314
562.872	16060.608
563.000	15983.412
563.128	15984.647
563.256	16027.235
563.384	16221.157
563.513	16022.588
563.641	16088.392
563.769	16153.706
563.897	16124.980
564.025	16165.863
564.153	16207.765
564.281	16324.961
564.409	16220.980
564.538	16158.471
564.666	16328.745
564.794	16346.765
564.922	16388.902
565.050	16412.667
565.178	16439.039
565.306	16463.059
565.434	16430.294
565.563	16607.608
565.691	16533.196
565.819	16711.490
565.947	16532.353
566.075	16599.294
566.203	16578.157
566.331	16618.157
566.459	17468.961
566.588	16626.765
566.716	16689.000
566.844	16688.020
566.972	16712.941
567.100	16802.941
567.228	16855.529
567.356	16912.745
567.484	16865.471
567.613	17029.098
567.741	16977.686
567.869	16997.647
567.997	17034.314
568.125	17078.078
568.253	17169.902
568.381	17111.451
568.509	17177.627
568.638	17158.294
568.766	17254.588
568.894	17269.627
569.022	17180.941
569.150	17311.353
569.278	17259.412
569.406	17459.922
569.534	17483.490
569.663	17332.098
569.791	17393.176
569.919	17439.039
570.047	17543.765
570.175	17443.529
570.303	17418.471
570.431	17429.882
570.559	17507.078
570.688	17609.529
570.816	17432.078
570.944	17532.647
571.072	17450.510
571.200	17425.314
571.328	17522.824
571.456	17575.804
571.584	17502.294
571.713	17579.039
571.841	17605.098
571.969	17699.294
572.097	17709.078
572.225	17494.941
572.353	17561.216
572.481	17461.373
572.609	17554.314
572.738	17486.216
572.866	17460.392
572.994	17446.059
573.122	17403.196
573.250	17509.490
573.378	17404.902
573.506	17426.059
573.634	17420.824
573.763	17363.353
573.891	17335.412
574.019	17425.176
574.147	17375.490
574.275	17401.647
574.403	17404.608
574.531	17358.216
574.659	17364.255
574.788	17356.588
574.916	17520.098
575.044	17367.196
575.172	17327.039
575.300	17340.902
575.428	17362.353
575.556	17402.118
575.684	17397.529
575.813	17397.314
575.941	17420.843
576.069	17431.863
576.197	17538.902
576.325	17468.078
576.453	17484.627
576.581	17494.706
576.709	17517.314
576.838	17556.157
576.966	17629.882
577.094	17772.000
577.222	17688.078
577.350	17683.294
577.478	17821.451
577.606	17865.941
577.734	17909.431
577.863	18018.882
577.991	18063.333
578.119	18172.314
578.247	18147.569
578.375	18235.667
578.503	18288.725
578.631	18259.294
578.759	18360.745
578.888	18546.941
579.016	18384.549
579.144	18391.137
579.272	18462.608
579.400	18485.137
579.528	18587.471
579.656	18641.529
579.784	18604.922
579.913	18649.745
580.041	18827.725
580.169	18727.706
580.297	18831.804
580.425	18919.490
580.553	18918.235
580.681	18980.412
580.809	19034.078
580.938	19013.667
581.066	19209.275
581.194	19188.020
581.322	19176.235
581.450	19320.961
581.578	19405.255
581.706	19424.588
581.834	19519.157
581.963	19532.588
582.091	19553.000
582.219	19634.078
582.347	19720.235
582.475	19730.529
582.603	19767.451
582.731	19921.235
582.859	19855.039
582.988	19872.255
583.116	19966.804
583.244	20020.137
583.372	20048.529
583.500	20077.608
583.628	20187.863
583.756	20174.275
583.884	20253.314
584.013	20399.490
584.141	20335.333
584.269	20420.471
584.397	20453.392
584.525	20489.549
584.653	20531.020
584.781	20554.980
584.909	20553.059
585.038	20574.588
585.166	20533.608
585.294	20644.549
585.422	20647.118
585.550	20642.431
585.678	20592.961
585.806	20692.941
585.934	20643.275
586.063	20708.902
586.191	20725.451
586.319	20691.569
586.447	20692.608
586.575	20721.863
586.703	20761.039
586.831	20676.216
586.959	20733.941
587.088	20657.039
587.216	20755.490
587.344	20725.059
587.472	20827.902
587.600	20643.843
587.728	20707.216
587.856	20568.627
587.984	20644.157
588.113	20790.608
588.241	20760.902
588.369	20823.353
588.497	20814.353
588.625	20753.608
588.753	20961.392
588.881	20834.078
589.009	20883.039
589.138	20887.098
589.266	20959.118
589.394	20978.157
589.522	21011.686
589.650	21095.235
589.778	21055.216
589.906	21122.020
590.034	21087.137
590.163	21093.137
590.291	21234.765
590.419	21143.392
590.547	21265.176
590.675	21242.588
590.803	21185.549
590.931	21237.941
591.059	21231.314
591.188	21227.510
591.316	21219.137
591.444	21263.275
591.572	21280.725
591.700	21220.392
591.828	21237.314
591.956	21288.275
592.084	21236.843
592.213	21233.471
592.341	21179.333
592.469	21224.980
592.597	21170.039
592.725	21105.922
592.853	21197.137
592.981	21118.059
593.109	21166.529
593.238	21085.176
593.366	21027.235
593.494	21012.824
593.622	20995.353
593.750	20978.196
593.878	21074.392
594.006	20908.686
594.134	20904.314
594.263	20991.510
594.391	20845.902
594.519	20851.902
594.647	20853.824
594.775	20772.922
594.903	20747.353
595.031	20748.431
595.159	20788.176
595.288	20722.765
595.416	20678.216
595.544	20735.392
595.672	20568.039
595.800	20666.902
595.928	20592.706
596.056	20543.039
596.184	20522.725
596.313	20627.176
596.441	20526.176
596.569	20595.059
596.697	20473.333
596.825	20407.353
596.953	20387.333
597.081	20415.314
597.209	20406.235
597.338	20466.078
597.466	20473.941
597.594	20453.843
597.722	20570.098
597.850	20559.216
597.978	20628.392
598.106	20684.431
598.234	20697.235
598.363	20651.569
598.491	20839.549
598.619	20717.549
598.747	20685.353
598.875	20829.667
599.003	20832.373
599.131	20885.863
599.259	20935.627
599.388	20965.216
599.516	21002.431
599.644	21185.745
599.772	21200.941
599.900	21188.255
600.028	21154.451
600.156	21281.490
600.284	21204.137
600.413	21272.451
600.541	21400.451
600.669	21522.706
600.797	21502.804
600.925	21459.980
601.053	21501.373
601.181	21570.882
601.309	21552.922
601.438	21564.745
601.566	21578.353
601.694	21568.235
601.822	21790.588
601.950	21506.686
602.078	21650.863
602.206	21698.863
602.334	21645.608
602.463	21658.745
602.591	21798.647
602.719	21755.412
602.847	21906.706
602.975	21746.373
603.103	21758.961
603.231	21779.529
603.359	21652.569
603.488	21758.078
603.616	21770.353
603.744	21811.098
603.872	21737.196
604.000	21767.784
604.128	21806.529
604.256	21743.686
604.384	21824.490
604.513	21876.294
604.641	21888.549
604.769	21966.235
604.897	21772.706
605.025	21714.863
605.153	21786.529
605.281	21815.333
605.409	21737.510
605.538	21736.843
605.666	21717.490
605.794	21774.196
605.922	21804.137
606.050	21708.529
606.178	21722.235
606.306	21715.784
606.434	21716.941
606.563	21715.863
606.691	21728.471
606.819	21725.902
606.947	21682.196
607.075	21676.980
607.203	21686.392
607.331	21680.235
607.459	21665.824
607.588	21681.667
607.716	21752.255
607.844	21784.922
607.972	21739.961
608.100	21629.451
608.228	21659.882
608.356	21604.882
608.484	21667.431
608.613	21618.745
608.741	21525.314
608.869	21574.529
608.997	21619.451
609.125	21602.078
609.253	21553.235
609.381	21593.686
609.509	21481.784
609.638	21521.529
609.766	21437.549
609.894	21456.569
610.022	21339.294
610.150	21460.961
610.278	21330.490
610.406	21361.549
610.534	21376.196
610.663	21323.118
610.791	21479.745
610.919	21340.765
611.047	21358.196
611.175	21279.098
611.303	21403.314
611.431	21286.882
611.559	21275.353
611.688	21257.157
611.816	21250.922
611.944	21212.431
612.072	21218.804
612.200	21299.686
612.328	21368.098
612.456	21215.078
612.584	21399.059
612.713	21223.333
612.841	21265.784
612.969	21199.882
613.097	21218.059
613.225	21190.353
613.353	21241.608
613.481	21190.784
613.609	21201.706
613.738	21217.490
613.866	21299.039
613.994	21239.059
614.122	21312.569
614.250	21286.216
614.378	21307.118
614.506	21273.471
614.634	21371.431
614.763	21373.137
614.891	21434.902
615.019	21433.804
615.147	21461.353
615.275	21445.667
615.403	21397.078
615.531	21435.255
615.659	21374.667
615.788	21407.314
615.916	21458.882
616.044	21396.039
616.172	21565.137
616.300	21376.451
616.428	21485.314
616.556	21438.941
616.684	21385.902
616.813	21445.608
616.941	21437.471
617.069	21428.627
617.197	21681.627
617.325	21464.647
617.453	21495.333
617.581	21587.529
617.709	21511.431
617.838	21604.294
617.966	21683.216
618.094	21613.627
618.222	21679.667
618.350	21758.451
618.478	21757.314
618.606	21891.941
618.734	21820.039
618.863	21895.255
618.991	21892.765
619.119	21980.137
619.247	21940.745
619.375	22017.941
619.503	22083.098
619.631	22222.667
619.759	22085.647
619.888	22132.137
620.016	22250.373
620.144	22374.255
620.272	22216.373
620.400	22408.863
620.528	22397.078
620.656	22524.451
620.784	22446.137
620.913	22517.882
621.041	22530.333
621.169	22602.157
621.297	22537.529
621.425	22634.588
621.553	22692.510
621.681	22728.706
621.809	22684.451
621.938	22764.765
622.066	22790.039
622.194	22732.392
622.322	22830.588
622.450	22760.216
622.578	22802.275
622.706	22825.706
622.834	22860.294
622.963	22981.529
623.091	22867.961
623.219	22897.196
623.347	22968.843
623.475	22887.020
623.603	22932.824
623.731	22967.353
623.859	23039.882
623.988	23142.020
624.116	23109.980
624.244	23173.784
624.372	23192.569
624.500	23260.490
624.628	23264.039
624.756	23247.784
624.884	23386.843
625.013	23488.745
625.141	23441.471
625.269	23342.490
625.397	23398.353
625.525	23488.941
625.653	23367.137
625.781	23445.098
625.909	23332.529
626.038	23414.235
626.166	23467.804
626.294	23390.510
626.422	23416.314
626.550	23508.118
626.678	23488.686
626.806	23460.176
626.934	23585.647
627.063	23649.098
627.191	23673.863
627.319	23678.373
627.447	23712.431
627.575	23629.098
627.703	23729.745
627.831	23818.510
627.959	23765.902
628.088	23812.078
628.216	23909.706
628.344	23818.294
628.472	23824.098
628.600	23988.725
628.728	23807.275
628.856	23810.000
628.984	23832.882
629.113	23877.353
629.241	23842.176
629.369	23814.667
629.497	23850.373
629.625	23851.882
629.753	23842.078
629.881	23871.569
630.009	23921.039
630.138	23848.824
630.266	23879.039
630.394	23950.922
630.522	23944.667
630.650	23806.686
630.778	23714.137
630.906	23721.686
631.034	23646.176
631.163	23748.098
631.291	23705.745
631.419	23584.647
631.547	23503.039
631.675	23472.235
631.803	23496.882
631.931	23525.961
632.059	23616.686
632.188	23464.961
632.316	23449.059
632.444	23557.824
632.572	23494.608
632.700	23481.706
632.828	23531.863
632.956	23376.725
633.084	23446.902
633.213	23339.294
633.341	23327.176
633.469	23314.490
633.597	23324.529
633.725	23329.176
633.853	23354.647
633.981	23271.020
634.109	23439.725
634.238	23185.804
634.366	23230.314
634.494	23276.922
634.622	23141.549
634.750	23194.000
634.878	23170.275
635.006	23145.627
635.134	23068.412
635.263	23191.098
635.391	23021.353
635.519	23045.941
635.647	23054.216
635.775	22946.216
635.903	22960.176
636.031	22859.255
636.159	22898.078
636.288	22836.098
636.416	22788.882
636.544	22788.137
636.672	22711.765
636.800	22764.784
636.928	22719.451
637.056	22885.745
637.184	22734.255
637.313	22795.647
637.441	22799.941
637.569	23017.196
637.697	22961.725
637.825	23059.765
637.953	23072.314
638.081	23089.549
638.209	23247.118
638.338	23313.647
638.466	23384.176
638.594	23437.686
638.722	23477.510
638.850	23624.020
638.978	23564.294
639.106	23627.176
639.234	23745.000
639.363	23825.157
639.491	23907.843
639.619	24021.392
639.747	24080.824
639.875	24146.686
640.003	24215.784
640.131	24304.569
640.259	24324.804
640.388	24400.137
640.516	24389.020
640.644	24476.196
640.772	24520.412
640.900	24515.255
641.028	24488.510
641.156	24482.529
641.284	24449.353
641.413	24560.471
641.541	24587.647
641.669	24516.529
641.797	24654.667
641.925	24627.471
642.053	24801.176
642.181	24715.922
642.309	24652.529
642.438	24748.941
642.566	24762.784
642.694	24865.059
642.822	24698.471
642.950	24760.608
643.078	24871.686
643.206	24797.157
643.334	24866.196
643.463	24849.333
643.591	24821.647
643.719	24936.706
643.847	24891.627
643.975	24938.431
644.103	24859.647
644.231	24899.216
644.359	24876.412
644.488	25008.882
644.616	25009.843
644.744	25111.745
644.872	25073.824
645.000	25198.804
645.128	25076.020
645.256	25102.706
645.384	25098.941
645.513	25128.137
645.641	25155.412
645.769	25109.686
645.897	25245.118
646.025	25238.412
646.153	25193.431
646.281	25228.451
646.409	25270.039
646.538	25283.843
646.666	25298.549
646.794	25314.471
646.922	25192.353
647.050	25283.294
647.178	25210.235
647.306	25448.176
647.434	25290.843
647.563	25289.902
647.691	25216.451
647.819	25265.529
647.947	25164.667
648.075	25234.373
648.203	25314.627
648.331	25250.980
648.459	25245.863
648.588	25212.333
648.716	25335.118
648.844	25265.294
648.972	25365.784
649.100	25387.529
649.228	25433.333
649.356	25517.549
649.484	25355.961
649.613	25453.549
649.741	25394.980
649.869	25457.569
649.997	25508.333
650.125	25500.392
650.253	25507.000
650.381	25509.843
650.509	25480.275
650.638	25445.608
650.766	25677.980
650.894	25553.098
651.022	25494.118
651.150	25600.686
651.278	25621.765
651.406	25599.863
651.534	25609.843
651.663	25594.078
651.791	25859.255
651.919	25673.667
652.047	25658.275
652.175	25781.137
652.303	25769.667
652.431	25784.647
652.559	25886.980
652.688	25886.627
652.816	25924.569
652.944	25858.510
653.072	25825.000
653.200	25922.373
653.328	25930.098
653.456	25891.882
653.584	25979.686
653.713	25918.627
653.841	25956.216
653.969	25945.627
654.097	25958.314
654.225	25989.412
654.353	26070.333
654.481	26070.922
654.609	26190.941
654.738	26141.922
654.866	26144.843
654.994	26265.275
655.122	26317.824
655.250	26376.608
655.378	26264.353
655.506	26316.078
655.634	26442.902
655.763	26245.137
655.891	26264.882
656.019	26280.980
656.147	26263.961
656.275	26324.118
656.403	26385.745
656.531	26274.000
656.659	26322.431
656.788	26361.510
656.916	26327.431
657.044	26352.941
657.172	26451.333
657.300	26521.647
657.428	26338.510
657.556	26403.843
657.684	26402.392
657.813	26434.902
657.941	26333.725
658.069	26261.843
658.197	26252.941
658.325	26355.725
658.453	26219.353
658.581	26262.294
658.709	26229.843
658.838	26296.569
658.966	26222.647
659.094	26240.255
659.222	26165.765
659.350	26156.549
659.478	26212.431
659.606	26181.020
659.734	26214.804
659.863	26158.000
659.991	26150.745
660.119	26128.078
660.247	26238.137
660.375	26119.863
660.503	26105.922
660.631	26160.157
660.759	26069.176
660.888	26048.431
661.016	26023.392
661.144	26080.647
661.272	26176.824
661.400	26097.784
661.528	26164.431
661.656	26140.529
661.784	26080.569
661.913	26153.314
662.041	26307.510
662.169	26258.706
662.297	26384.157
662.425	26304.980
662.553	26473.118
662.681	26381.882
662.809	26510.059
662.938	26415.941
663.066	26517.451
663.194	26478.725
663.322	26538.627
663.450	26628.373
663.578	26668.647
663.706	26856.157
663.834	26725.078
663.963	26707.490
664.091	26735.922
664.219	26720.588
664.347	26880.098
664.475	26984.078
664.603	26894.588
664.731	26878.765
664.859	27026.569
664.988	27034.627
665.116	27116.686
665.244	27195.431
665.372	27259.216
665.500	27339.647
665.628	27268.000
665.756	27382.706
665.884	27441.627
666.013	27494.176
666.141	27516.961
666.269	27517.118
666.397	27636.549
666.525	27675.667
666.653	27705.000
666.781	27847.647
666.909	27798.843
667.038	27908.137
667.166	27888.627
667.294	27932.275
667.422	27999.863
667.550	28067.980
667.678	28087.941
667.806	28170.000
667.934	28207.353
668.063	28235.333
668.191	28379.412
668.319	28464.804
668.447	28516.039
668.575	28487.863
668.703	28541.529
668.831	28594.510
668.959	28578.353
669.088	28674.098
669.216	28681.569
669.344	28785.314
669.472	28755.529
669.600	28787.196
669.728	28817.804
669.856	28804.627
669.984	28818.000
670.113	28777.549
670.241	28892.039
670.369	28917.157
670.497	28880.039
670.625	28877.216
670.753	29118.157
670.881	29174.275
671.009	28964.294
671.138	28863.529
671.266	28937.039
671.394	28865.902
671.522	29021.157
671.650	28857.510
671.778	28997.902
671.906	28958.098
672.034	29050.647
672.163	28907.549
672.291	28946.510
672.419	29048.451
672.547	29054.941
672.675	28981.706
672.803	28989.275
672.931	28948.392
673.059	28899.725
673.188	28852.529
673.316	28775.745
673.444	28919.000
673.572	29025.863
673.700	28836.333
673.828	28765.392
673.956	28753.039
674.084	28764.098
674.213	28844.078
674.341	28821.667
674.469	28758.392
674.597	28734.902
674.725	28819.294
674.853	28645.098
674.981	28642.412
675.109	28696.176
675.238	28692.392
675.366	28741.941
675.494	28711.765
675.622	28719.882
675.750	28820.686
675.878	28742.706
676.006	28814.294
676.134	28786.235
676.263	28736.471
676.391	28827.549
676.519	28720.922
676.647	28767.745
676.775	28796.824
676.903	28844.706
677.031	28783.000
677.159	28752.922
677.288	28902.706
677.416	28710.275
677.544	28729.745
677.672	28779.039
677.800	28751.686
677.928	28754.529
678.056	28750.843
678.184	28815.549
678.313	28898.196
678.441	28799.000
678.569	29022.882
678.697	28730.588
678.825	28733.882
678.953	28840.667
679.081	28787.333
679.209	28719.667
679.338	28793.216
679.466	28785.804
679.594	28734.373
679.722	28761.569
679.850	28721.824
679.978	28774.392
680.106	28722.235
680.234	28754.431
680.363	28854.373
680.491	28824.588
680.619	29069.216
680.747	29009.020
680.875	28982.902
681.003	28923.078
681.131	28967.373
681.259	28959.784
681.388	28991.137
681.516	29111.980
681.644	28930.196
681.772	29160.235
681.900	29094.373
682.028	29103.647
682.156	29072.725
682.284	29114.725
682.413	29203.980
682.541	29232.706
682.669	29307.059
682.797	29361.078
682.925	29460.608
683.053	29534.569
683.181	29614.824
683.309	29707.824
683.438	29712.020
683.566	29800.863
683.694	29978.333
683.822	30036.784
683.950	30000.431
684.078	29974.353
684.206	30098.118
684.334	30145.412
684.463	30211.059
684.591	30057.824
684.719	30086.510
684.847	30126.922
684.975	30212.353
685.103	30147.922
685.231	30286.255
685.359	30222.137
685.488	30233.235
685.616	30304.412
685.744	30289.725
685.872	30177.667
686.000	30335.373
686.128	30250.882
686.256	30264.608
686.384	30300.941
686.513	30278.039
686.641	30300.373
686.769	30269.333
686.897	30298.059
687.025	30155.608
687.153	30213.569
687.281	30037.765
687.409	30087.804
687.538	30058.196
687.666	29980.137
687.794	30070.412
687.922	30046.176
688.050	29935.176
688.178	30050.843
688.306	29967.333
688.434	29930.588
688.563	29894.706
688.691	29864.510
688.819	29950.627
688.947	29792.314
689.075	29763.471
689.203	29658.569
689.331	29617.529
689.459	29619.686
689.588	29617.608
689.716	29603.353
689.844	29651.392
689.972	29651.196
690.100	29536.686
690.228	29711.490
690.356	29493.451
690.484	29581.412
690.613	29479.412
690.741	29414.980
690.869	29363.784
690.997	29423.804
691.125	29613.059
691.253	29573.647
691.381	29394.275
691.509	29311.863
691.638	29233.569
691.766	29295.451
691.894	29375.922
692.022	29307.863
692.150	29273.745
692.278	29251.294
692.406	29275.255
692.534	29289.882
692.663	29230.549
692.791	29265.275
692.919	29297.431
693.047	29305.137
693.175	29359.176
693.303	29557.451
693.431	29258.706
693.559	29341.529
693.688	29351.137
693.816	29342.510
693.944	29390.412
694.072	29304.333
694.200	29259.510
694.328	29374.569
694.456	29394.196
694.584	29371.000
694.713	29416.137
694.841	29387.059
694.969	29423.686
695.097	29669.784
695.225	29438.255
695.353	29587.706
695.481	29544.294
695.609	29678.980
695.738	29505.451
695.866	29472.765
695.994	29586.314
696.122	29774.314
696.250	29674.353
696.378	29712.000
696.506	29672.000
696.634	29707.000
696.763	29666.333
696.891	29712.098
697.019	29741.294
697.147	29879.216
697.275	29861.353
697.403	29873.373
697.531	29894.412
697.659	29862.196
697.788	29990.000
697.916	29922.784
698.044	29967.824
698.172	30009.333
698.300	29992.392
698.428	29979.824
698.556	30049.529
698.684	30071.922
698.813	30126.373
698.941	30194.059
699.069	30118.725
699.197	30137.059
699.325	30026.373
699.453	30126.961
699.581	30157.294
699.709	30072.667
699.838	30096.549
699.966	30085.471
700.094	30153.412
700.222	30269.059
700.350	30157.706
700.478	30204.941
700.606	30106.235
700.734	30091.020
700.863	29965.824
700.991	30014.235
701.119	30007.725
701.247	30056.510
701.375	30113.686
701.503	29966.294
701.631	30008.588
701.759	29940.941
701.888	30000.176
702.016	30148.725
702.144	29932.412
702.272	29977.118
702.400	29884.725
702.528	30018.824
702.656	30075.451
702.784	29985.686
702.913	30017.490
703.041	29913.686
703.169	30035.627
703.297	29831.824
703.425	29759.020
703.553	29758.176
703.681	29787.196
703.809	29769.235
703.938	29707.667
704.066	29794.020
704.194	29615.863
704.322	29577.431
704.450	29504.961
704.578	29546.608
704.706	29624.824
704.834	29560.294
704.963	29471.706
705.091	29394.627
705.219	29511.647
705.347	29370.412
705.475	29341.843
705.603	29355.020
705.731	29271.039
705.859	29242.275
705.988	29266.098
706.116	29246.902
706.244	29152.471
706.372	29243.922
706.500	29211.549
706.628	29331.451
706.756	29251.451
706.884	29158.784
707.013	29204.824
707.141	29058.863
707.269	29207.294
707.397	29014.510
707.525	28870.000
707.653	28925.765
707.781	28952.059
707.909	28829.647
708.038	28787.863
708.166	28683.235
708.294	28680.078
708.422	28619.373
708.550	28568.882
708.678	28471.373
708.806	28544.549
708.934	28395.392
709.063	28443.020
709.191	28363.980
709.319	28441.765
709.447	28496.098
709.575	28464.412
709.703	28410.431
709.831	28582.137
709.959	28483.275
710.088	28673.784
710.216	28684.118
710.344	28555.922
710.472	28672.078
710.600	28806.294
710.728	28758.569
710.856	28762.412
710.984	28907.569
711.113	28810.059
711.241	28829.706
711.369	28997.667
711.497	28923.647
711.625	28906.922
711.753	28852.353
711.881	28968.627
712.009	29035.667
712.138	28896.196
712.266	28921.902
712.394	28875.490
712.522	28879.549
712.650	28921.039
712.778	28960.902
712.906	28894.137
713.034	28921.608
713.163	28956.392
713.291	28942.980
713.419	29029.745
713.547	28990.569
713.675	28956.275
713.803	28918.137
713.931	28931.843
714.059	28938.882
714.188	28958.745
714.316	28935.843
714.444	28917.569
714.572	29074.333
714.700	28874.490
714.828	28872.882
714.956	28903.804
715.084	28850.706
715.213	28906.686
715.341	28933.941
715.469	28822.118
715.597	28945.275
715.725	28800.294
715.853	28885.000
715.981	28784.804
716.109	28848.314
716.238	28877.686
716.366	28828.686
716.494	28937.451
716.622	28922.039
716.750	28823.588
716.878	28787.196
717.006	28848.255
717.134	28692.922
717.263	28724.412
717.391	28775.137
717.519	28645.922
717.647	28735.490
717.775	28651.157
717.903	28596.196
718.031	28526.863
718.159	28479.471
718.288	28518.922
718.416	28430.902
718.544	28432.235
718.672	28342.392
718.800	28301.843
718.928	28325.569
719.056	28191.412
719.184	28140.275
719.313	28134.765
719.441	28168.255
719.569	27989.216
719.697	28073.902
719.825	28083.725
719.953	28042.353
720.081	27916.196
720.209	27909.157
720.338	27870.608
720.466	27787.216
720.594	27835.118
720.722	27800.980
720.850	27686.000
720.978	27581.118
721.106	27569.392
721.234	27522.255
721.363	27444.804
721.491	27415.373
721.619	27385.157
721.747	27409.353
721.875	27431.647
722.003	27215.412
722.131	27291.725
722.259	27233.706
722.388	27339.098
722.516	27159.745
722.644	27182.216
722.772	27073.216
722.900	27053.196
723.028	26987.373
723.156	26991.059
723.284	26952.843
723.413	26977.235
723.541	26799.863
723.669	26840.922
723.797	26889.863
723.925	26760.784
724.053	26819.922
724.181	26782.471
724.309	26782.137
724.438	26741.961
724.566	26774.255
724.694	26632.725
724.822	26605.765
724.950	26662.392
725.078	26636.235
725.206	26534.765
725.334	26549.804
725.463	26531.431
725.591	26534.843
725.719	26635.196
725.847	26403.118
725.975	26491.412
726.103	26475.235
726.231	26366.686
726.359	26341.412
726.488	26611.784
726.616	26287.118
726.744	26387.392
726.872	26278.157
727.000	26363.137
727.128	26351.569
727.256	26417.333
727.384	26334.294
727.513	26320.098
727.641	26344.471
727.769	26261.725
727.897	26340.333
728.025	26264.647
728.153	26182.549
728.281	26160.471
728.409	26188.686
728.538	26177.451
728.666	26145.784
728.794	26188.686
728.922	26180.039
729.050	26145.157
729.178	26139.588
729.306	26132.059
729.434	26186.118
729.563	26147.686
729.691	26137.706
729.819	26209.569
729.947	26181.706
730.075	26180.431
730.203	26181.294
730.331	26107.843
730.459	26090.706
730.588	26137.392
730.716	26121.784
730.844	26070.255
730.972	26136.588
731.100	26222.314
731.228	26245.412
731.356	26214.294
731.484	26232.255
731.613	26276.020
731.741	26127.490
731.869	26190.961
731.997	26210.725
732.125	26286.078
732.253	26267.843
732.381	26246.275
732.509	26389.314
732.638	26325.078
732.766	26281.549
732.894	26354.745
733.022	26395.765
733.150	26405.098
733.278	26471.353
733.406	26367.902
733.534	26447.863
733.663	26413.941
733.791	26478.627
733.919	26378.020
734.047	26371.667
734.175	26413.490
734.303	26337.686
734.431	26357.686
734.559	26421.765
734.688	26423.059
734.816	26392.431
734.944	26391.412
735.072	26338.863
735.200	26373.529
735.328	26339.902
735.456	26409.275
735.584	26350.824
735.713	26433.255
735.841	26439.608
735.969	26615.000
736.097	26389.137
736.225	26419.196
736.353	26362.020
736.481	26419.471
736.609	26391.471
736.738	26322.196
736.866	26306.882
736.994	26355.275
737.122	26296.510
737.250	26273.529
737.378	26219.804
737.506	26056.294
737.634	26139.765
737.763	26112.373
737.891	26136.569
738.019	26064.118
738.147	26166.725
738.275	25937.863
738.403	26009.255
738.531	25977.451
738.659	25923.725
738.788	25935.255
738.916	25925.431
739.044	25964.843
739.172	25828.333
739.300	25817.490
739.428	25845.451
739.556	25666.569
739.684	25654.431
739.813	25615.824
739.941	25655.078
740.069	25611.353
740.197	25543.843
740.325	25442.941
740.453	25496.471
740.581	25388.529
740.709	25308.020
740.838	25203.784
740.966	25168.843
741.094	25152.216
741.222	25157.765
741.350	25209.627
741.478	25141.882
741.606	25092.784
741.734	25098.529
741.863	25082.196
741.991	25032.392
742.119	25079.196
742.247	25125.745
742.375	24932.451
742.503	25002.078
742.631	24974.804
742.759	25004.922
742.888	24927.843
743.016	24927.078
743.144	24809.235
743.272	24870.588
743.400	24894.078
743.528	24849.706
743.656	24893.137
743.784	25026.941
743.913	24833.059
744.041	24846.451
744.169	24793.000
744.297	24980.078
744.425	24822.745
744.553	24814.471
744.681	24769.020
744.809	24677.196
744.938	24705.529
745.066	24727.588
745.194	24696.529
745.322	24706.216
745.450	24679.686
745.578	24688.431
745.706	24650.588
745.834	24595.882
745.963	24601.706
746.091	24618.059
746.219	24568.647
746.347	24574.804
746.475	24545.902
746.603	24517.765
746.731	24562.824
746.859	24622.137
746.988	24572.078
747.116	24725.922
747.244	24621.863
747.372	24743.569
747.500	24635.667
747.628	24753.529
747.756	24733.294
747.884	24826.333
748.013	24870.490
748.141	24781.471
748.269	24856.118
748.397	24896.059
748.525	24957.353
748.653	24949.137
748.781	24998.333
748.909	25008.961
749.038	25072.569
749.166	24984.294
749.294	25097.431
749.422	25075.451
749.550	25061.490
749.678	25073.549
749.806	25141.706
749.934	25183.412
750.063	25231.588
750.191	25268.882
750.319	25232.980
750.447	25188.333
750.575	25205.843
750.703	25206.961
750.831	25148.510
750.959	25147.941
751.088	25187.059
751.216	25113.510
751.344	25052.941
751.472	25070.471
751.600	25064.941
751.728	25107.686
751.856	25083.706
751.984	24990.333
752.113	25083.529
752.241	24992.353
752.369	25062.765
752.497	25115.294
752.625	24981.882
752.753	25028.843
752.881	24961.745
753.009	24908.020
753.138	24948.451
753.266	24913.510
753.394	24875.373
753.522	24950.314
753.650	24863.824
753.778	24896.255
753.906	24819.765
754.034	24828.431
754.163	24870.941
754.291	24990.961
754.419	24880.941
754.547	24813.627
754.675	24815.706
754.803	24832.216
754.931	24790.431
755.059	24801.471
755.188	24830.275
755.316	24754.314
755.444	24821.745
755.572	24666.627
755.700	24766.216
755.828	24731.275
755.956	24806.765
756.084	24714.216
756.213	24723.431
756.341	24795.392
756.469	24767.706
756.597	24876.137
756.725	24772.529
756.853	24909.529
756.981	24883.137
757.109	24857.059
757.238	24807.843
757.366	24880.549
757.494	24892.765
757.622	24902.157
757.750	24844.392
757.878	24918.784
758.006	24946.902
758.134	24978.902
758.263	25009.000
758.391	25039.353
758.519	25062.765
758.647	25108.980
758.775	25111.392
758.903	25103.627
759.031	25122.941
759.159	25176.255
759.288	25287.490
759.416	25115.902
759.544	25191.137
759.672	25177.431
759.800	25261.882
759.928	25252.980
760.056	25361.176
760.184	25305.510
760.313	25319.000
760.441	25417.863
760.569	25357.098
760.697	25490.020
760.825	25489.961
760.953	25532.608
761.081	25435.569
761.209	25486.039
761.338	25439.706
761.466	25570.961
761.594	25703.608
761.722	25697.765
761.850	25547.784
761.978	25402.647
762.106	25534.863
762.234	25509.765
762.363	25495.235
762.491	25499.157
762.619	25535.392
762.747	25558.686
762.875	25480.373
763.003	25527.431
763.131	25529.157
763.259	25516.275
763.388	25533.608
763.516	25508.980
763.644	25529.863
763.772	25519.902
763.900	25553.784
764.028	25561.804
764.156	25527.157
764.284	25562.941
764.413	25585.000
764.541	25763.020
764.669	25696.176
764.797	25734.647
764.925	25633.333
765.053	25503.902
765.181	25617.392
765.309	25617.627
765.438	25584.549
765.566	25575.706
765.694	25574.824
765.822	25704.804
765.950	25582.314
766.078	25567.412
766.206	25565.196
766.334	25503.157
766.463	25457.255
766.591	25534.294
766.719	25553.902
766.847	25477.059
766.975	25455.137
767.103	25406.745
767.231	25452.588
767.359	25466.373
767.488	25420.137
767.616	25443.275
767.744	25492.804
767.872	25533.922
768.000	25425.451
768.128	25516.118
768.256	25551.294
768.384	25409.118
768.513	25522.098
768.641	25488.451
768.769	25556.961
768.897	25521.529
769.025	25499.333
769.153	25439.863
769.281	25526.686
769.409	25410.686
769.538	25357.961
769.666	25420.451
769.794	25403.686
769.922	25528.569
770.050	25419.196
770.178	25391.784
770.306	25363.804
770.434	25245.451
770.563	25350.373
770.691	25325.961
770.819	25286.843
770.947	25346.196
771.075	25337.118
771.203	25376.412
771.331	25440.784
771.459	25308.804
771.588	25273.020
771.716	25187.098
771.844	25283.882
771.972	25201.588
772.100	25211.588
772.228	25094.157
772.356	25129.824
772.484	25051.373
772.613	25091.216
772.741	25023.784
772.869	25095.039
772.997	25055.549
773.125	25083.451
773.253	25134.431
773.381	25033.412
773.509	25047.843
773.638	24934.412
773.766	24874.588
773.894	24861.431
774.022	24874.569
774.150	24849.961
774.278	24784.431
774.406	24679.784
774.534	24802.686
774.663	24762.039
774.791	24653.667
774.919	24736.392
775.047	24638.157
775.175	24633.804
775.303	24679.255
775.431	24548.235
775.559	24573.922
775.688	24522.137
775.816	24654.510
775.944	24466.373
776.072	24598.961
776.200	24467.098
776.328	24425.745
776.456	24413.647
776.584	24358.647
776.713	24416.000
776.841	24335.157
776.969	24385.863
777.097	24414.667
777.225	24427.196
777.353	24287.686
777.481	24358.196
777.609	24420.157
777.738	24363.627
777.866	24330.118
777.994	24373.176
778.122	24375.157
778.250	24380.745
778.378	24317.235
778.506	24342.510
778.634	24225.176
778.763	24334.000
778.891	24219.980
779.019	24209.706
779.147	24251.804
779.275	24289.804
779.403	24252.725
779.531	24218.588
779.659	24068.157
779.788	24190.588
779.916	24046.588
780.044	23984.784
780.172	24100.686
780.300	23977.275
780.428	24034.451
780.556	24102.020
780.684	23933.706
780.813	23844.529
780.941	23878.176
781.069	23855.725
781.197	23960.745
781.325	23952.902
781.453	23792.078
781.581	23757.392
781.709	23669.647
781.838	23642.216
781.966	23560.294
782.094	23540.941
782.222	23658.471
782.350	23521.137
782.478	23556.922
782.606	23465.451
782.734	23487.980
782.863	23380.118
782.991	23292.216
783.119	23309.392
783.247	23302.902
783.375	23367.706
783.503	23315.510
783.631	23273.235
783.759	23174.784
783.888	23241.059
784.016	23224.196
784.144	23144.569
784.272	23049.647
784.400	23058.078
784.528	23021.471
784.656	22997.235
784.784	22942.588
784.913	22865.000
785.041	22863.157
785.169	22734.078
785.297	22679.843
785.425	22623.804
785.553	22633.863
785.681	22578.922
785.809	22655.490
785.938	22572.569
786.066	22527.745
786.194	22463.490
786.322	22412.510
786.450	22438.078
786.578	22404.216
786.706	22420.490
786.834	22397.765
786.963	22383.353
787.091	22301.176
787.219	22199.667
787.347	22216.882
787.475	22246.882
787.603	22145.157
787.731	22094.529
787.859	22220.706
787.988	22241.824
788.116	22147.804
788.244	22106.020
788.372	22002.725
788.500	22019.863
788.628	21911.843
788.756	21880.294
788.884	21949.745
789.013	21861.882
789.141	21819.529
789.269	21834.941
789.397	21734.961
789.525	21830.314
789.653	21660.804
789.781	21684.902
789.909	21580.804
790.038	21588.745
790.166	21490.549
790.294	21372.804
790.422	21318.373
790.550	21289.765
790.678	21258.157
790.806	21223.686
790.934	21181.961
791.063	21118.961
791.191	21084.922
791.319	21024.647
791.447	20986.608
791.575	20990.863
791.703	20895.451
791.831	20887.471
791.959	20805.490
792.088	20818.569
792.216	20745.961
792.344	20708.843
792.472	20625.137
792.600	20642.725
792.728	20495.843
792.856	20656.843
792.984	20469.863
793.113	20485.471
793.241	20410.686
793.369	20394.588
793.497	20398.314
793.625	20387.627
793.753	20311.118
793.881	20192.588
794.009	20240.490
794.138	20088.392
794.266	20161.667
794.394	20057.490
794.522	20136.392
794.650	20074.765
794.778	20035.176
794.906	19996.431
795.034	20081.235
795.163	20011.922
795.291	19967.235
795.419	20095.765
795.547	19872.392
795.675	19913.490
795.803	19922.471
795.931	19844.902
796.059	19759.608
796.188	19773.686
796.316	19721.039
796.444	19799.725
796.572	19705.353
796.700	19707.961
796.828	19602.961
796.956	19491.294
797.084	19461.863
797.213	19397.078
797.341	19416.431
797.469	19352.314
797.597	19380.843
797.725	19273.725
797.853	19248.451
797.981	19187.804
798.109	19195.804
798.238	19046.196
798.366	19117.765
798.494	18984.765
798.622	19015.392
798.750	19067.961
798.878	18978.373
799.006	18959.431
799.134	18843.686
799.263	18803.529
799.391	18747.373
799.519	18666.569
799.647	18613.569
799.775	18609.980
799.903	18579.078
800.031	18570.118
800.159	18479.039
800.288	18455.216
800.416	18393.412
800.544	18376.431
800.672	18246.902
800.800	18308.118
800.928	18186.039
801.056	18181.941
801.184	18162.275
801.313	18233.706
801.441	18111.706
801.569	18058.451
801.697	18051.922
801.825	18035.725
801.953	18055.706
802.081	18063.980
802.209	17978.608
802.338	17940.078
802.466	17942.608
802.594	17865.824
802.722	17822.922
802.850	17845.000
802.978	17850.490
803.106	17799.235
803.234	17871.784
803.363	17817.235
803.491	17783.882
803.619	17564.941
803.747	17646.529
803.875	17581.196
804.003	17569.078
804.131	17558.020
804.259	17494.588
804.388	17505.471
804.516	17504.922
804.644	17470.373
804.772	17404.882
804.900	17442.941
805.028	17348.176
805.156	17351.078
805.284	17378.608
805.413	17353.196
805.541	17345.118
805.669	17236.922
805.797	17227.784
805.925	17176.941
806.053	17114.451
806.181	17151.137
806.309	17051.294
806.438	17074.824
806.566	17090.569
806.694	17089.118
806.822	16976.255
806.950	16952.451
807.078	16907.412
807.206	16927.882
807.334	16851.549
807.463	16847.294
807.591	16779.471
807.719	16815.882
807.847	16729.020
807.975	16726.157
808.103	16671.412
808.231	16670.098
808.359	16578.118
808.488	16489.353
808.616	16494.059
808.744	16435.294
808.872	16395.725
809.000	16421.314
809.128	16417.137
809.256	16314.784
809.384	16217.529
809.513	16204.667
809.641	16210.471
809.769	16140.471
809.897	16161.196
810.025	16064.843
810.153	16090.059
810.281	16074.706
810.409	15998.118
810.538	16033.216
810.666	15971.118
810.794	15969.373
810.922	15964.686
811.050	15968.529
811.178	15982.980
811.306	15893.667
811.434	15905.627
811.563	15829.941
811.691	15832.216
811.819	15802.961
811.947	15790.137
812.075	15699.000
812.203	15758.471
812.331	15704.451
812.459	15683.216
812.588	15681.902
812.716	15600.843
812.844	15580.510
812.972	15437.608
813.100	15559.863
813.228	15460.980
813.356	15426.608
813.484	15426.608
813.613	15369.451
813.741	15325.314
813.869	14450.137
