spectrometer_0_40nm_hybrid_at_650.00nm_cut_at_1184.50Y_01.dat
02.05.2022
11:49:29
cut middle at Y: 1184.50
top cursor: 1210 down cursor: 1159 mean of: 51 lines , 2560 datapoints
wavelength(nm)	intensity[arb. units]
485.997	5453.216
486.125	4986.078
486.253	4909.157
486.381	4933.824
486.510	4963.882
486.638	5058.922
486.766	5053.608
486.894	5061.804
487.022	5094.588
487.150	5100.314
487.278	5146.725
487.406	5102.431
487.535	5167.176
487.663	5212.725
487.791	5178.098
487.919	5223.784
488.047	5192.176
488.175	5228.961
488.303	5247.784
488.431	5253.569
488.560	5275.431
488.688	5280.000
488.816	5275.471
488.944	5344.667
489.072	5359.118
489.200	5369.706
489.328	5410.608
489.456	5467.588
489.585	5431.980
489.713	5444.706
489.841	5479.706
489.969	5455.745
490.097	5490.824
490.225	5506.098
490.353	5605.510
490.481	5549.431
490.610	5568.118
490.738	5618.020
490.866	5672.745
490.994	5613.157
491.122	5692.392
491.250	5691.471
491.378	5725.765
491.506	5775.529
491.635	5725.490
491.763	5760.451
491.891	5760.314
492.019	5833.294
492.147	5787.353
492.275	5764.118
492.403	5774.490
492.531	5897.059
492.660	5867.980
492.788	5901.451
492.916	5928.843
493.044	5843.706
493.172	5931.784
493.300	5875.118
493.428	5916.333
493.556	5974.804
493.685	6030.196
493.813	6034.039
493.941	6049.098
494.069	6107.314
494.197	6114.000
494.325	6167.980
494.453	6331.843
494.581	6247.627
494.710	6274.667
494.838	6276.314
494.966	6378.294
495.094	6372.412
495.222	6463.941
495.350	6431.098
495.478	6494.784
495.606	6536.510
495.735	6515.294
495.863	6556.471
495.991	6573.882
496.119	6594.882
496.247	6625.157
496.375	6600.843
496.503	6641.529
496.631	6631.706
496.760	6578.608
496.888	6639.804
497.016	6638.961
497.144	6641.333
497.272	6623.608
497.400	6631.039
497.528	6634.569
497.656	6565.412
497.785	6532.667
497.913	6530.627
498.041	6510.216
498.169	6529.922
498.297	6492.157
498.425	6605.392
498.553	6492.549
498.681	6511.588
498.810	6533.765
498.938	6492.137
499.066	6511.941
499.194	6598.647
499.322	6584.451
499.450	6577.039
499.578	6577.569
499.706	6590.137
499.835	6600.431
499.963	6623.078
500.091	6664.706
500.219	6648.588
500.347	6670.686
500.475	6669.412
500.603	6711.176
500.731	6708.353
500.860	6771.196
500.988	6803.824
501.116	6796.059
501.244	6858.647
501.372	6916.824
501.500	6905.647
501.628	6948.000
501.756	6926.843
501.885	7000.098
502.013	6962.196
502.141	7061.882
502.269	7012.275
502.397	7132.686
502.525	7065.059
502.653	7121.431
502.781	7150.451
502.910	7137.314
503.038	7193.941
503.166	7174.451
503.294	7201.137
503.422	7169.373
503.550	7178.686
503.678	7207.922
503.806	7148.588
503.935	7212.647
504.063	7209.216
504.191	7220.686
504.319	7196.510
504.447	7213.804
504.575	7181.745
504.703	7235.765
504.831	7178.196
504.960	7126.039
505.088	7165.941
505.216	7236.020
505.344	7312.549
505.472	7217.490
505.600	7202.745
505.728	7346.824
505.856	7289.451
505.985	7278.216
506.113	7323.373
506.241	7347.275
506.369	7319.235
506.497	7281.353
506.625	7395.039
506.753	7376.020
506.881	7392.333
507.010	7384.667
507.138	7367.529
507.266	7428.569
507.394	7418.353
507.522	7498.608
507.650	7432.490
507.778	7470.098
507.906	7519.667
508.035	7524.431
508.163	7552.157
508.291	7557.000
508.419	7634.941
508.547	7618.471
508.675	7685.529
508.803	7591.137
508.931	7683.549
509.060	7690.510
509.188	7710.706
509.316	7717.392
509.444	7743.922
509.572	7849.216
509.700	7787.255
509.828	7837.235
509.956	7859.471
510.085	7831.647
510.213	7852.843
510.341	7871.294
510.469	7892.020
510.597	7943.490
510.725	7953.157
510.853	8047.824
510.981	8010.941
511.110	8027.392
511.238	8020.333
511.366	8045.216
511.494	8073.725
511.622	8095.059
511.750	8169.373
511.878	8207.275
512.006	8165.686
512.135	8201.059
512.263	8259.098
512.391	8294.647
512.519	8286.353
512.647	8284.294
512.775	8337.373
512.903	8373.039
513.031	8412.784
513.160	8365.549
513.288	8502.196
513.416	8413.431
513.544	8488.137
513.672	8421.314
513.800	8462.529
513.928	8450.765
514.056	8498.784
514.185	8465.373
514.313	8435.745
514.441	8550.412
514.569	8472.059
514.697	8497.098
514.825	8443.353
514.953	8508.941
515.081	8437.451
515.210	8481.667
515.338	8492.392
515.466	8422.961
515.594	8421.098
515.722	8381.843
515.850	8429.039
515.978	8372.314
516.106	8372.333
516.235	8385.980
516.363	8352.529
516.491	8388.765
516.619	8400.608
516.747	8463.196
516.875	8453.333
517.003	8438.039
517.131	8443.824
517.260	8395.314
517.388	8419.706
517.516	8534.647
517.644	8558.961
517.772	8590.647
517.900	8531.275
518.028	8610.137
518.156	8617.824
518.284	8597.824
518.413	8670.941
518.541	8733.961
518.669	8688.039
518.797	8792.863
518.925	8789.078
519.053	8773.529
519.181	8769.608
519.309	8812.451
519.438	8897.235
519.566	8889.137
519.694	8897.824
519.822	8960.490
519.950	8989.980
520.078	9028.137
520.206	9062.275
520.334	9088.235
520.463	9025.824
520.591	9065.373
520.719	9113.490
520.847	9132.824
520.975	9101.392
521.103	9205.373
521.231	9157.588
521.359	9287.569
521.488	9198.627
521.616	9244.863
521.744	9196.157
521.872	9247.020
522.000	9155.922
522.128	9153.431
522.256	9195.353
522.384	9205.706
522.513	9144.725
522.641	9161.020
522.769	9162.098
522.897	9226.490
523.025	9188.255
523.153	9160.235
523.281	9246.882
523.409	9177.745
523.538	9221.196
523.666	9183.863
523.794	9229.157
523.922	9218.745
524.050	9229.137
524.178	9247.745
524.306	9253.255
524.434	9283.725
524.563	9337.392
524.691	9481.706
524.819	9396.882
524.947	9451.922
525.075	9448.686
525.203	9485.608
525.331	9555.471
525.459	9690.569
525.588	9643.275
525.716	9732.588
525.844	9754.490
525.972	9829.627
526.100	9876.451
526.228	9937.725
526.356	9881.941
526.484	10048.039
526.613	9979.412
526.741	10087.216
526.869	10086.275
526.997	10199.118
527.125	10145.824
527.253	10171.529
527.381	10280.686
527.509	10259.118
527.638	10327.275
527.766	10414.059
527.894	10373.863
528.022	10487.843
528.150	10391.000
528.278	10485.745
528.406	10458.000
528.534	10481.863
528.663	10466.314
528.791	10566.216
528.919	10546.980
529.047	10630.216
529.175	10503.608
529.303	10542.471
529.431	10534.196
529.559	10589.020
529.688	10520.980
529.816	10551.451
529.944	10635.843
530.072	10557.275
530.200	10537.922
530.328	10579.961
530.456	10538.471
530.584	10520.529
530.713	10584.529
530.841	10557.725
530.969	10509.412
531.097	10547.686
531.225	10504.843
531.353	10644.314
531.481	10562.490
531.609	10724.784
531.738	10583.235
531.866	10656.216
531.994	10682.412
532.122	10773.216
532.250	10622.510
532.378	10618.804
532.506	10605.059
532.634	10627.392
532.763	10597.745
532.891	10631.765
533.019	10619.078
533.147	10614.725
533.275	10643.961
533.403	10695.275
533.531	10680.784
533.659	10677.902
533.788	10693.314
533.916	10705.549
534.044	10735.059
534.172	10806.235
534.300	10790.137
534.428	10758.961
534.556	10978.510
534.684	10834.373
534.813	10813.020
534.941	10811.824
535.069	10827.804
535.197	10800.902
535.325	10843.275
535.453	10821.412
535.581	10949.961
535.709	10865.667
535.838	10873.843
535.966	10903.549
536.094	10864.490
536.222	10953.373
536.350	10917.176
536.478	10900.980
536.606	10996.784
536.734	10954.686
536.863	10992.098
536.991	10996.294
537.119	11024.608
537.247	10975.137
537.375	11136.686
537.503	10994.451
537.631	10997.275
537.759	11065.118
537.888	11020.961
538.016	11219.176
538.144	11138.706
538.272	11084.804
538.400	11167.255
538.528	11072.882
538.656	11182.980
538.784	11170.118
538.913	11259.216
539.041	11222.824
539.169	11213.765
539.297	11270.608
539.425	11359.529
539.553	11303.275
539.681	11371.353
539.809	11379.157
539.938	11372.137
540.066	11425.745
540.194	11440.569
540.322	11575.157
540.450	11577.255
540.578	11541.314
540.706	11570.588
540.834	11627.902
540.963	11732.765
541.091	11679.725
541.219	11670.255
541.347	11797.471
541.475	11750.000
541.603	11775.941
541.731	11770.176
541.859	11793.333
541.988	11791.431
542.116	11964.039
542.244	11839.941
542.372	12009.078
542.500	11805.765
542.628	11952.020
542.756	11873.902
542.884	11901.392
543.013	11915.118
543.141	11991.647
543.269	11867.588
543.397	11814.118
543.525	11828.373
543.653	11914.137
543.781	11819.373
543.909	11812.118
544.038	11870.667
544.166	11833.255
544.294	11908.490
544.422	11723.667
544.550	11767.235
544.678	11759.745
544.806	11674.627
544.934	11653.000
545.063	11652.569
545.191	11747.412
545.319	11632.078
545.447	11542.510
545.575	11543.490
545.703	11520.608
545.831	11557.294
545.959	11507.588
546.088	11555.078
546.216	11470.745
546.344	11448.784
546.472	11646.588
546.600	11479.510
546.728	11443.765
546.856	11489.451
546.984	11497.784
547.113	11624.020
547.241	11594.020
547.369	11672.843
547.497	11619.941
547.625	11628.647
547.753	11683.157
547.881	11600.039
548.009	11615.196
548.138	11635.745
548.266	11590.373
548.394	11673.176
548.522	11587.588
548.650	11737.843
548.778	11681.431
548.906	11605.235
549.034	11714.039
549.163	11614.412
549.291	11616.745
549.419	11707.118
549.547	11955.627
549.675	11866.314
549.803	11943.804
549.931	11955.392
550.059	12080.961
550.188	12184.549
550.316	12236.255
550.444	12311.471
550.572	12298.294
550.700	12400.235
550.828	12524.000
550.956	12519.510
551.084	12607.824
551.213	12554.157
551.341	12641.510
551.469	12649.059
551.597	12709.745
551.725	12740.529
551.853	12744.157
551.981	12780.255
552.109	12748.765
552.238	12837.765
552.366	12795.588
552.494	12797.000
552.622	12789.549
552.750	12860.902
552.878	12822.176
553.006	12894.647
553.134	12886.588
553.263	12894.608
553.391	12914.961
553.519	13030.824
553.647	12940.529
553.775	12917.098
553.903	13076.137
554.031	13009.176
554.159	12934.961
554.288	12999.588
554.416	12986.863
554.544	13075.549
554.672	13034.882
554.800	13006.608
554.928	12980.490
555.056	12996.451
555.184	12981.314
555.313	12983.078
555.441	12958.451
555.569	12970.529
555.697	13061.353
555.825	12993.980
555.953	12966.588
556.081	12944.980
556.209	13006.275
556.338	13014.569
556.466	13147.922
556.594	13019.824
556.722	13037.510
556.850	13082.235
556.978	12936.863
557.106	12917.745
557.234	13007.882
557.363	13046.176
557.491	12984.059
557.619	12954.490
557.747	13014.843
557.875	12908.412
558.003	12999.137
558.131	12978.745
558.259	13006.471
558.388	12964.039
558.516	12981.196
558.644	12981.490
558.772	13023.451
558.900	12969.647
559.028	12941.667
559.156	12976.373
559.284	12985.941
559.413	12999.902
559.541	12983.431
559.669	13005.765
559.797	13085.706
559.925	12993.608
560.053	13050.627
560.181	12994.608
560.309	13034.196
560.438	12993.725
560.566	13029.294
560.694	12990.961
560.822	13143.686
560.950	13008.569
561.078	13015.529
561.206	13175.118
561.334	12996.902
561.463	12983.784
561.591	13094.588
561.719	12999.510
561.847	13011.843
561.975	12944.608
562.103	13009.275
562.231	13000.745
562.359	12899.255
562.488	13047.294
562.616	12986.392
562.744	13021.216
562.872	13038.725
563.000	12983.569
563.128	13011.137
563.256	13025.039
563.384	13182.471
563.513	13011.980
563.641	13075.490
563.769	13118.314
563.897	13101.549
564.025	13136.196
564.153	13095.843
564.281	13233.451
564.409	13166.686
564.538	13166.392
564.666	13234.824
564.794	13301.020
564.922	13269.667
565.050	13395.961
565.178	13257.686
565.306	13347.412
565.434	13315.137
565.563	13477.824
565.691	13368.902
565.819	13539.510
565.947	13369.804
566.075	13400.235
566.203	13450.333
566.331	13383.922
566.459	14159.118
566.588	13511.412
566.716	13494.216
566.844	13505.784
566.972	13541.804
567.100	13552.373
567.228	13638.471
567.356	13687.549
567.484	13616.569
567.613	13692.373
567.741	13738.471
567.869	13681.020
567.997	13704.941
568.125	13771.824
568.253	13919.000
568.381	13767.451
568.509	13819.059
568.638	13833.941
568.766	13871.078
568.894	13896.294
569.022	13827.412
569.150	13933.137
569.278	13855.647
569.406	14035.314
569.534	13967.765
569.663	13884.451
569.791	13891.608
569.919	13916.902
570.047	14115.118
570.175	13899.137
570.303	13913.588
570.431	13948.863
570.559	13971.255
570.688	14166.510
570.816	13988.961
570.944	14051.314
571.072	13943.118
571.200	13941.765
571.328	13983.784
571.456	14018.549
571.584	13980.941
571.713	13996.235
571.841	14005.569
571.969	14136.686
572.097	14130.314
572.225	13906.275
572.353	13960.020
572.481	13882.863
572.609	13954.059
572.738	13889.412
572.866	13851.804
572.994	13906.471
573.122	13851.373
573.250	13907.216
573.378	13893.765
573.506	13843.627
573.634	13916.627
573.763	13833.686
573.891	13856.941
574.019	13861.275
574.147	13797.647
574.275	13873.451
574.403	13851.020
574.531	13760.235
574.659	13766.941
574.788	13808.725
574.916	13957.294
575.044	13792.549
575.172	13792.941
575.300	13746.902
575.428	13714.392
575.556	13777.980
575.684	13807.961
575.813	13788.627
575.941	13809.255
576.069	13748.941
576.197	13848.980
576.325	13758.980
576.453	13839.314
576.581	13765.098
576.709	13772.843
576.838	13897.275
576.966	13990.098
577.094	14054.294
577.222	13950.902
577.350	13915.549
577.478	14056.431
577.606	14018.922
577.734	14075.804
577.863	14156.608
577.991	14214.078
578.119	14294.980
578.247	14287.980
578.375	14401.882
578.503	14366.902
578.631	14374.647
578.759	14407.157
578.888	14571.039
579.016	14372.686
579.144	14405.216
579.272	14418.137
579.400	14496.608
579.528	14488.980
579.656	14592.608
579.784	14466.863
579.913	14610.784
580.041	14758.824
580.169	14627.235
580.297	14738.431
580.425	14721.804
580.553	14765.529
580.681	14804.529
580.809	14803.078
580.938	14893.216
581.066	14970.020
581.194	14953.627
581.322	14990.824
581.450	15067.686
581.578	15133.922
581.706	15119.294
581.834	15130.020
581.963	15166.314
582.091	15127.804
582.219	15266.922
582.347	15283.490
582.475	15262.451
582.603	15334.725
582.731	15346.824
582.859	15328.333
582.988	15394.392
583.116	15392.020
583.244	15473.961
583.372	15492.667
583.500	15526.588
583.628	15589.373
583.756	15585.373
583.884	15573.137
584.013	15733.490
584.141	15607.078
584.269	15677.961
584.397	15765.863
584.525	15697.020
584.653	15796.451
584.781	15790.510
584.909	15785.451
585.038	15785.490
585.166	15780.333
585.294	15832.176
585.422	15798.235
585.550	15852.098
585.678	15809.667
585.806	15871.961
585.934	15837.529
586.063	15845.706
586.191	15836.706
586.319	15867.412
586.447	15837.647
586.575	15766.373
586.703	15856.118
586.831	15741.667
586.959	15822.196
587.088	15727.059
587.216	15730.314
587.344	15727.157
587.472	15859.471
587.600	15638.804
587.728	15645.784
587.856	15636.078
587.984	15661.980
588.113	15792.529
588.241	15756.549
588.369	15841.137
588.497	15758.118
588.625	15729.000
588.753	15912.412
588.881	15787.608
589.009	15799.510
589.138	15837.451
589.266	15770.667
589.394	15843.627
589.522	15853.059
589.650	15962.451
589.778	15935.176
589.906	16017.333
590.034	15941.157
590.163	15974.255
590.291	15989.118
590.419	15952.745
590.547	16001.490
590.675	16002.510
590.803	16002.216
590.931	15941.765
591.059	15921.176
591.188	15880.039
591.316	15862.647
591.444	15869.314
591.572	15883.510
591.700	15885.373
591.828	15901.529
591.956	15880.255
592.084	15901.353
592.213	15908.902
592.341	15886.118
592.469	15852.922
592.597	15807.412
592.725	15766.118
592.853	15800.529
592.981	15780.627
593.109	15787.902
593.238	15664.882
593.366	15638.255
593.494	15631.549
593.622	15628.667
593.750	15589.078
593.878	15568.686
594.006	15494.000
594.134	15529.588
594.263	15565.647
594.391	15397.510
594.519	15456.039
594.647	15432.510
594.775	15336.706
594.903	15317.627
595.031	15394.804
595.159	15278.569
595.288	15265.588
595.416	15231.824
595.544	15225.765
595.672	15129.118
595.800	15242.275
595.928	15089.961
596.056	15062.353
596.184	15020.784
596.313	15161.196
596.441	15037.255
596.569	15052.529
596.697	14931.667
596.825	14946.765
596.953	14901.980
597.081	14890.549
597.209	14854.627
597.338	14867.314
597.466	14837.863
597.594	14861.686
597.722	15031.784
597.850	14965.569
597.978	15014.804
598.106	15027.510
598.234	15033.137
598.363	14910.255
598.491	15098.196
598.619	14928.118
598.747	14970.961
598.875	15091.471
599.003	15064.941
599.131	15089.275
599.259	15122.333
599.388	15074.000
599.516	15134.941
599.644	15273.882
599.772	15286.000
599.900	15210.059
600.028	15195.451
600.156	15363.216
600.284	15196.980
600.413	15295.824
600.541	15355.118
600.669	15383.471
600.797	15309.549
600.925	15386.431
601.053	15407.667
601.181	15436.196
601.309	15367.275
601.438	15419.510
601.566	15355.980
601.694	15344.569
601.822	15538.157
601.950	15304.294
602.078	15322.784
602.206	15430.039
602.334	15357.020
602.463	15320.549
602.591	15348.490
602.719	15302.804
602.847	15486.922
602.975	15294.078
603.103	15320.078
603.231	15310.627
603.359	15327.137
603.488	15361.549
603.616	15280.765
603.744	15263.118
603.872	15277.745
604.000	15234.765
604.128	15288.706
604.256	15281.333
604.384	15282.176
604.513	15306.196
604.641	15337.353
604.769	15338.922
604.897	15244.078
605.025	15169.941
605.153	15221.431
605.281	15270.922
605.409	15150.529
605.538	15147.490
605.666	15157.922
605.794	15128.882
605.922	15177.314
606.050	15097.686
606.178	15113.176
606.306	15063.824
606.434	15114.039
606.563	15135.941
606.691	15039.412
606.819	15078.843
606.947	14988.157
607.075	15016.412
607.203	14953.176
607.331	14923.039
607.459	14963.627
607.588	14928.647
607.716	14946.569
607.844	14906.451
607.972	14966.314
608.100	14857.235
608.228	14825.059
608.356	14843.078
608.484	14804.745
608.613	14798.471
608.741	14712.863
608.869	14702.510
608.997	14768.745
609.125	14748.471
609.253	14694.686
609.381	14607.529
609.509	14596.137
609.638	14584.275
609.766	14569.824
609.894	14607.118
610.022	14514.490
610.150	14643.176
610.278	14479.373
610.406	14471.627
610.534	14463.353
610.663	14396.314
610.791	14543.686
610.919	14349.647
611.047	14386.216
611.175	14287.333
611.303	14254.549
611.431	14323.667
611.559	14280.471
611.688	14257.451
611.816	14211.510
611.944	14228.020
612.072	14163.706
612.200	14190.843
612.328	14250.980
612.456	14123.412
612.584	14333.176
612.713	14164.863
612.841	14160.922
612.969	14132.490
613.097	14134.941
613.225	14097.863
613.353	14103.020
613.481	14111.902
613.609	14077.392
613.738	14031.510
613.866	14102.392
613.994	14090.490
614.122	14046.000
614.250	14009.902
614.378	14047.980
614.506	14034.471
614.634	14055.569
614.763	14057.118
614.891	14030.902
615.019	14056.314
615.147	14060.922
615.275	14005.255
615.403	14050.039
615.531	13997.196
615.659	14034.843
615.788	13950.569
615.916	14053.176
616.044	13953.647
616.172	14125.882
616.300	13939.510
616.428	14046.804
616.556	13916.961
616.684	13913.980
616.813	13938.745
616.941	13918.706
617.069	13901.902
617.197	14118.667
617.325	13974.255
617.453	13950.686
617.581	13954.569
617.709	13892.314
617.838	13953.569
617.966	13965.314
618.094	13949.529
618.222	14012.824
618.350	14013.235
618.478	13979.980
618.606	14097.333
618.734	14047.353
618.863	14092.725
618.991	14031.471
619.119	14125.863
619.247	14066.608
619.375	14131.686
619.503	14159.078
619.631	14242.549
619.759	14111.118
619.888	14163.235
620.016	14222.725
620.144	14236.941
620.272	14147.882
620.400	14218.157
620.528	14177.549
620.656	14331.078
620.784	14247.275
620.913	14244.765
621.041	14313.569
621.169	14335.627
621.297	14263.039
621.425	14350.314
621.553	14297.020
621.681	14388.667
621.809	14387.922
621.938	14328.824
622.066	14371.490
622.194	14265.157
622.322	14370.902
622.450	14366.118
622.578	14326.765
622.706	14320.549
622.834	14356.569
622.963	14344.059
623.091	14366.490
623.219	14359.216
623.347	14427.196
623.475	14410.980
623.603	14356.373
623.731	14384.804
623.859	14399.412
623.988	14432.333
624.116	14411.451
624.244	14498.667
624.372	14443.686
624.500	14450.431
624.628	14517.392
624.756	14529.667
624.884	14574.392
625.013	14691.255
625.141	14543.510
625.269	14492.373
625.397	14603.098
625.525	14659.098
625.653	14463.216
625.781	14611.373
625.909	14506.980
626.038	14541.745
626.166	14486.667
626.294	14454.020
626.422	14534.255
626.550	14519.745
626.678	14526.725
626.806	14540.333
626.934	14618.118
627.063	14611.667
627.191	14585.922
627.319	14627.216
627.447	14577.235
627.575	14633.902
627.703	14607.412
627.831	14669.157
627.959	14634.725
628.088	14741.863
628.216	14785.294
628.344	14669.529
628.472	14703.078
628.600	14814.314
628.728	14666.902
628.856	14608.275
628.984	14629.608
629.113	14657.843
629.241	14636.569
629.369	14590.333
629.497	14663.490
629.625	14636.745
629.753	14604.647
629.881	14591.412
630.009	14601.647
630.138	14637.510
630.266	14643.490
630.394	14827.667
630.522	14772.373
630.650	14621.863
630.778	14571.961
630.906	14555.706
631.034	14464.725
631.163	14540.235
631.291	14510.941
631.419	14444.490
631.547	14350.980
631.675	14367.922
631.803	14280.765
631.931	14388.451
632.059	14416.471
632.188	14303.275
632.316	14292.784
632.444	14379.490
632.572	14308.078
632.700	14345.216
632.828	14280.294
632.956	14221.000
633.084	14222.824
633.213	14260.255
633.341	14222.392
633.469	14216.843
633.597	14220.020
633.725	14148.706
633.853	14262.882
633.981	14231.235
634.109	14414.784
634.238	14202.490
634.366	14150.412
634.494	14135.098
634.622	14151.569
634.750	14095.216
634.878	14104.549
635.006	14072.000
635.134	14026.431
635.263	14162.824
635.391	14051.863
635.519	14004.588
635.647	13997.882
635.775	14076.000
635.903	14065.647
636.031	13916.039
636.159	13903.490
636.288	13887.157
636.416	13867.627
636.544	13820.961
636.672	13795.333
636.800	13865.176
636.928	13822.902
637.056	13886.667
637.184	13760.922
637.313	13794.549
637.441	13821.725
637.569	13936.980
637.697	13919.784
637.825	13902.235
637.953	13947.588
638.081	13978.647
638.209	14088.569
638.338	14123.745
638.466	14148.784
638.594	14190.059
638.722	14170.608
638.850	14332.588
638.978	14291.333
639.106	14291.098
639.234	14355.667
639.363	14332.000
639.491	14383.196
639.619	14541.039
639.747	14551.902
639.875	14564.176
640.003	14655.078
640.131	14629.373
640.259	14639.275
640.388	14754.686
640.516	14718.980
640.644	14737.078
640.772	14835.216
640.900	14825.941
641.028	14717.216
641.156	14774.039
641.284	14748.745
641.413	14966.333
641.541	14823.078
641.669	14854.922
641.797	14896.373
641.925	14851.941
642.053	14964.176
642.181	14893.667
642.309	14812.118
642.438	14883.020
642.566	14858.000
642.694	14973.471
642.822	14786.294
642.950	14804.980
643.078	14895.843
643.206	14828.549
643.334	14854.431
643.463	14904.961
643.591	14831.020
643.719	14882.059
643.847	14894.824
643.975	14900.000
644.103	14856.941
644.231	14904.157
644.359	14900.608
644.488	14879.314
644.616	14953.588
644.744	14967.412
644.872	14932.706
645.000	15061.471
645.128	14963.784
645.256	14979.627
645.384	15034.510
645.513	15009.647
645.641	14961.451
645.769	14985.275
645.897	15067.686
646.025	15047.941
646.153	15005.471
646.281	15029.647
646.409	15013.667
646.538	15053.176
646.666	14969.863
646.794	14958.412
646.922	14947.078
647.050	14969.529
647.178	14975.784
647.306	15176.667
647.434	15008.333
647.563	14858.176
647.691	14912.216
647.819	14964.255
647.947	14830.980
648.075	14807.176
648.203	14837.549
648.331	14795.490
648.459	14769.373
648.588	14755.098
648.716	14900.255
648.844	14808.765
648.972	14785.255
649.100	14802.039
649.228	14827.882
649.356	14846.275
649.484	14736.863
649.613	14828.941
649.741	14775.765
649.869	14795.294
649.997	14832.529
650.125	14821.451
650.253	14823.529
650.381	14789.765
650.509	14734.549
650.638	14738.745
650.766	14877.765
650.894	14725.255
651.022	14731.941
651.150	14781.706
651.278	14796.745
651.406	14796.431
651.534	14768.941
651.663	14740.569
651.791	14983.549
651.919	14754.118
652.047	14728.255
652.175	14807.706
652.303	14712.078
652.431	14731.784
652.559	14779.980
652.688	14702.431
652.816	14826.882
652.944	14686.882
653.072	14678.314
653.200	14752.431
653.328	14724.412
653.456	14620.118
653.584	14731.333
653.713	14670.490
653.841	14611.745
653.969	14622.608
654.097	14615.941
654.225	14631.412
654.353	14672.196
654.481	14674.902
654.609	14727.255
654.738	14732.902
654.866	14672.098
654.994	14734.843
655.122	14716.294
655.250	14771.608
655.378	14593.000
655.506	14667.314
655.634	14679.529
655.763	14520.725
655.891	14516.255
656.019	14519.235
656.147	14473.941
656.275	14519.137
656.403	14527.510
656.531	14408.549
656.659	14458.333
656.788	14466.373
656.916	14473.353
657.044	14431.373
657.172	14422.549
657.300	14567.745
657.428	14417.020
657.556	14464.353
657.684	14434.647
657.813	14380.647
657.941	14279.196
658.069	14286.569
658.197	14287.314
658.325	14302.980
658.453	14218.275
658.581	14156.745
658.709	14098.941
658.838	14135.608
658.966	14089.745
659.094	14115.784
659.222	14035.765
659.350	13968.255
659.478	14024.510
659.606	13998.627
659.734	13951.216
659.863	13806.647
659.991	13774.510
660.119	13808.549
660.247	13936.333
660.375	13691.392
660.503	13727.627
660.631	13775.235
660.759	13660.804
660.888	13682.235
661.016	13609.137
661.144	13596.118
661.272	13567.373
661.400	13561.961
661.528	13543.412
661.656	13481.686
661.784	13461.353
661.913	13421.980
662.041	13517.353
662.169	13447.333
662.297	13531.000
662.425	13496.039
662.553	13600.176
662.681	13378.686
662.809	13517.078
662.938	13397.157
663.066	13431.490
663.194	13402.471
663.322	13435.275
663.450	13421.510
663.578	13422.902
663.706	13580.843
663.834	13390.843
663.963	13314.843
664.091	13407.314
664.219	13350.745
664.347	13462.353
664.475	13463.333
664.603	13265.647
664.731	13278.255
664.859	13303.059
664.988	13290.843
665.116	13251.961
665.244	13297.157
665.372	13328.000
665.500	13366.627
665.628	13275.294
665.756	13313.588
665.884	13276.020
666.013	13270.333
666.141	13295.078
666.269	13305.235
666.397	13273.412
666.525	13250.510
666.653	13269.569
666.781	13338.471
666.909	13293.157
667.038	13347.392
667.166	13287.647
667.294	13281.235
667.422	13242.255
667.550	13311.471
667.678	13225.333
667.806	13224.412
667.934	13248.804
668.063	13227.529
668.191	13265.980
668.319	13335.255
668.447	13259.745
668.575	13254.059
668.703	13269.294
668.831	13218.863
668.959	13248.882
669.088	13360.157
669.216	13205.098
669.344	13227.863
669.472	13201.451
669.600	13169.941
669.728	13211.549
669.856	13121.980
669.984	13136.843
670.113	13031.373
670.241	13013.647
670.369	13047.176
670.497	13025.824
670.625	13001.118
670.753	13182.373
670.881	13183.412
671.009	13003.020
671.138	12980.706
671.266	12917.980
671.394	12951.627
671.522	12957.569
671.650	12820.922
671.778	12794.392
671.906	12800.392
672.034	12812.275
672.163	12713.471
672.291	12749.353
672.419	12752.588
672.547	12676.824
672.675	12603.373
672.803	12631.961
672.931	12535.980
673.059	12525.706
673.188	12457.471
673.316	12436.020
673.444	12463.529
673.572	12539.706
673.700	12339.980
673.828	12472.961
673.956	12373.451
674.084	12310.412
674.213	12336.118
674.341	12249.863
674.469	12229.784
674.597	12197.706
674.725	12263.118
674.853	12096.725
674.981	12159.294
675.109	12117.098
675.238	12022.412
675.366	12022.471
675.494	11991.980
675.622	12029.020
675.750	12048.922
675.878	11965.255
676.006	11986.490
676.134	11938.725
676.263	11903.647
676.391	11909.745
676.519	11789.451
676.647	11884.412
676.775	11787.608
676.903	11930.725
677.031	11748.569
677.159	11765.059
677.288	11923.765
677.416	11731.843
677.544	11682.510
677.672	11709.353
677.800	11671.843
677.928	11697.961
678.056	11739.353
678.184	11698.137
678.313	11765.471
678.441	11605.059
678.569	11819.314
678.697	11636.176
678.825	11571.922
678.953	11585.784
679.081	11547.078
679.209	11574.765
679.338	11589.118
679.466	11489.353
679.594	11509.275
679.722	11531.157
679.850	11449.216
679.978	11521.725
680.106	11454.725
680.234	11473.843
680.363	11538.843
680.491	11503.529
680.619	11682.431
680.747	11523.000
680.875	11543.647
681.003	11532.078
681.131	11541.412
681.259	11495.941
681.388	11484.157
681.516	11655.588
681.644	11479.843
681.772	11648.941
681.900	11503.961
682.028	11517.176
682.156	11529.980
682.284	11553.196
682.413	11574.294
682.541	11568.373
682.669	11549.667
682.797	11593.745
682.925	11623.706
683.053	11586.549
683.181	11665.235
683.309	11686.804
683.438	11686.118
683.566	11770.392
683.694	11761.961
683.822	11757.863
683.950	11794.471
684.078	11750.863
684.206	11849.510
684.334	11843.922
684.463	11927.020
684.591	11813.843
684.719	11834.275
684.847	11819.922
684.975	11887.255
685.103	11818.922
685.231	11934.863
685.359	11900.118
685.488	11848.078
685.616	11892.765
685.744	11865.882
685.872	11842.216
686.000	11888.431
686.128	11853.647
686.256	11899.745
686.384	11912.059
686.513	11907.176
686.641	11977.471
686.769	11982.471
686.897	12066.706
687.025	11936.353
687.153	12079.255
687.281	11990.706
687.409	12004.412
687.538	11966.333
687.666	11936.627
687.794	11961.451
687.922	11936.353
688.050	11853.333
688.178	11994.490
688.306	11981.196
688.434	11898.353
688.563	11860.176
688.691	11860.314
688.819	11999.627
688.947	11932.392
689.075	11918.176
689.203	11943.373
689.331	11869.549
689.459	11866.725
689.588	11922.176
689.716	11882.216
689.844	11916.667
689.972	11932.569
690.100	11921.314
690.228	12045.333
690.356	11925.549
690.484	12052.706
690.613	11933.255
690.741	11905.510
690.869	11888.275
690.997	11873.157
691.125	12164.235
691.253	12135.765
691.381	12008.196
691.509	11989.784
691.638	11992.627
691.766	12021.725
691.894	12114.157
692.022	12101.451
692.150	12148.059
692.278	12070.588
692.406	12144.314
692.534	12149.255
692.663	12156.431
692.791	12149.314
692.919	12280.275
693.047	12210.667
693.175	12256.608
693.303	12369.549
693.431	12290.098
693.559	12378.471
693.688	12414.784
693.816	12386.333
693.944	12455.667
694.072	12403.059
694.200	12481.412
694.328	12436.588
694.456	12605.235
694.584	12494.039
694.713	12576.235
694.841	12560.216
694.969	12594.118
695.097	12767.098
695.225	12637.627
695.353	12809.353
695.481	12763.686
695.609	12913.784
695.738	12791.255
695.866	12909.020
695.994	12862.725
696.122	13083.824
696.250	13009.118
696.378	13051.000
696.506	12981.039
696.634	13052.843
696.763	13083.510
696.891	13132.392
697.019	13197.235
697.147	13285.765
697.275	13230.784
697.403	13288.588
697.531	13293.882
697.659	13280.608
697.788	13514.392
697.916	13444.843
698.044	13503.373
698.172	13524.431
698.300	13629.039
698.428	13541.255
698.556	13602.941
698.684	13627.686
698.813	13718.569
698.941	13825.157
699.069	13752.471
699.197	13805.235
699.325	13775.647
699.453	13866.235
699.581	13954.118
699.709	13917.216
699.838	13950.392
699.966	13958.549
700.094	14100.412
700.222	14214.784
700.350	14181.314
700.478	14162.529
700.606	14157.980
700.734	14168.667
700.863	14196.039
700.991	14271.078
701.119	14272.608
701.247	14287.451
701.375	14420.078
701.503	14335.725
701.631	14342.706
701.759	14421.490
701.888	14482.294
702.016	14582.431
702.144	14429.275
702.272	14500.863
702.400	14506.667
702.528	14647.216
702.656	14731.235
702.784	14661.137
702.913	14666.255
703.041	14657.451
703.169	14831.686
703.297	14748.294
703.425	14738.804
703.553	14842.549
703.681	14850.098
703.809	14874.020
703.938	14859.980
704.066	15042.451
704.194	14899.039
704.322	14880.784
704.450	14921.667
704.578	14919.647
704.706	15082.863
704.834	15066.549
704.963	15088.588
705.091	15041.784
705.219	15109.863
705.347	15080.569
705.475	15133.588
705.603	15126.431
705.731	15157.824
705.859	15183.471
705.988	15234.039
706.116	15222.392
706.244	15204.980
706.372	15324.824
706.500	15286.922
706.628	15379.569
706.756	15377.569
706.884	15327.725
707.013	15470.549
707.141	15380.333
707.269	15451.216
707.397	15364.667
707.525	15392.510
707.653	15387.059
707.781	15438.392
707.909	15390.824
708.038	15508.569
708.166	15431.725
708.294	15449.863
708.422	15403.294
708.550	15424.275
708.678	15429.549
708.806	15514.588
708.934	15409.667
709.063	15511.216
709.191	15491.353
709.319	15517.843
709.447	15627.431
709.575	15611.961
709.703	15641.824
709.831	15786.706
709.959	15702.824
710.088	15831.020
710.216	15931.137
710.344	15905.902
710.472	15996.196
710.600	16102.078
710.728	16152.235
710.856	16178.784
710.984	16322.020
711.113	16311.549
711.241	16361.745
711.369	16522.843
711.497	16470.353
711.625	16463.118
711.753	16572.765
711.881	16562.647
712.009	16718.882
712.138	16629.216
712.266	16618.471
712.394	16691.000
712.522	16632.824
712.650	16722.725
712.778	16841.490
712.906	16830.706
713.034	16844.373
713.163	16911.510
713.291	16925.176
713.419	16936.706
713.547	17001.059
713.675	16994.294
713.803	17012.353
713.931	17051.020
714.059	17084.235
714.188	17099.588
714.316	17171.863
714.444	17209.745
714.572	17260.804
714.700	17204.490
714.828	17265.275
714.956	17262.451
715.084	17262.608
715.213	17311.549
715.341	17314.922
715.469	17378.471
715.597	17547.255
715.725	17383.765
715.853	17496.000
715.981	17431.745
716.109	17548.804
716.238	17499.490
716.366	17575.510
716.494	17701.804
716.622	17634.765
716.750	17629.098
716.878	17758.549
717.006	17691.137
717.134	17646.627
717.263	17703.294
717.391	17771.392
717.519	17767.686
717.647	17816.078
717.775	17778.078
717.903	17755.353
718.031	17732.235
718.159	17784.627
718.288	17804.510
718.416	17860.667
718.544	17780.627
718.672	17812.941
718.800	17818.706
718.928	17917.412
719.056	17873.294
719.184	17920.922
719.313	17803.314
719.441	17960.314
719.569	17834.471
719.697	17922.922
719.825	18022.765
719.953	17951.510
720.081	17983.804
720.209	17899.980
720.338	17978.961
720.466	17951.961
720.594	17954.686
720.722	17983.412
720.850	17983.059
720.978	17914.824
721.106	17919.765
721.234	17895.863
721.363	17929.745
721.491	17900.725
721.619	17914.490
721.747	17882.863
721.875	17938.000
722.003	17890.431
722.131	17885.137
722.259	17897.784
722.388	18050.353
722.516	17878.098
722.644	17986.510
722.772	17935.569
722.900	17943.333
723.028	17944.902
723.156	17957.549
723.284	17923.000
723.413	17955.118
723.541	17964.725
723.669	17946.647
723.797	17981.765
723.925	17969.490
724.053	17959.569
724.181	17989.039
724.309	18004.647
724.438	17938.098
724.566	18023.490
724.694	17924.667
724.822	17970.373
724.950	18015.431
725.078	18037.549
725.206	17957.098
725.334	18068.157
725.463	18020.431
725.591	18113.353
725.719	18209.196
725.847	18073.490
725.975	18132.392
726.103	18132.824
726.231	18127.765
726.359	18204.608
726.488	18351.275
726.616	18177.020
726.744	18208.961
726.872	18230.549
727.000	18255.804
727.128	18236.196
727.256	18331.196
727.384	18345.922
727.513	18297.039
727.641	18324.333
727.769	18360.020
727.897	18338.039
728.025	18319.784
728.153	18335.980
728.281	18426.157
728.409	18414.824
728.538	18427.333
728.666	18388.471
728.794	18482.255
728.922	18483.627
729.050	18479.588
729.178	18478.235
729.306	18471.627
729.434	18508.137
729.563	18585.353
729.691	18547.098
729.819	18539.627
729.947	18618.039
730.075	18535.961
730.203	18530.333
730.331	18606.824
730.459	18590.216
730.588	18554.431
730.716	18681.333
730.844	18692.667
730.972	18833.490
731.100	18837.843
731.228	18828.765
731.356	18850.922
731.484	18822.255
731.613	18887.412
731.741	18875.157
731.869	18944.961
731.997	18993.706
732.125	19057.608
732.253	19058.255
732.381	19063.824
732.509	19162.784
732.638	19045.275
732.766	19067.941
732.894	19190.235
733.022	19240.235
733.150	19207.647
733.278	19320.235
733.406	19294.275
733.534	19244.667
733.663	19328.843
733.791	19433.216
733.919	19415.902
734.047	19405.294
734.175	19460.882
734.303	19467.980
734.431	19454.039
734.559	19477.000
734.688	19604.490
734.816	19487.314
734.944	19627.314
735.072	19626.804
735.200	19642.549
735.328	19588.765
735.456	19654.843
735.584	19682.863
735.713	19769.961
735.841	19750.157
735.969	19979.824
736.097	19729.569
736.225	19705.333
736.353	19786.824
736.481	19794.922
736.609	19802.412
736.738	19768.333
736.866	19718.627
736.994	19842.353
737.122	19866.294
737.250	19855.392
737.378	19842.333
737.506	19726.098
737.634	19775.549
737.763	19791.725
737.891	19891.431
738.019	19831.627
738.147	19951.647
738.275	19753.275
738.403	19815.824
738.531	19785.510
738.659	19823.745
738.788	19738.333
738.916	19871.118
739.044	19821.667
739.172	19726.294
739.300	19731.647
739.428	19706.294
739.556	19618.922
739.684	19611.980
739.813	19753.431
739.941	19673.824
740.069	19625.039
740.197	19645.412
740.325	19660.588
740.453	19676.961
740.581	19552.333
740.709	19498.039
740.838	19508.824
740.966	19489.294
741.094	19508.588
741.222	19504.000
741.350	19536.314
741.478	19516.549
741.606	19513.275
741.734	19504.882
741.863	19537.216
741.991	19454.098
742.119	19484.529
742.247	19678.647
742.375	19485.176
742.503	19507.353
742.631	19450.275
742.759	19469.569
742.888	19532.686
743.016	19474.059
743.144	19447.922
743.272	19520.980
743.400	19558.431
743.528	19489.627
743.656	19623.020
743.784	19771.490
743.913	19513.843
744.041	19589.608
744.169	19600.000
744.297	19768.020
744.425	19594.608
744.553	19535.275
744.681	19599.039
744.809	19538.549
744.938	19558.020
745.066	19623.392
745.194	19624.039
745.322	19578.941
745.450	19484.431
745.578	19606.863
745.706	19567.510
745.834	19510.000
745.963	19587.196
746.091	19640.569
746.219	19599.392
746.347	19627.333
746.475	19554.765
746.603	19606.353
746.731	19663.529
746.859	19687.510
746.988	19668.000
747.116	19793.255
747.244	19696.137
747.372	19762.020
747.500	19791.412
747.628	19821.627
747.756	19793.725
747.884	19893.725
748.013	19923.059
748.141	19914.922
748.269	19943.784
748.397	19957.314
748.525	20011.863
748.653	20025.137
748.781	20154.471
748.909	20098.333
749.038	20147.725
749.166	20166.549
749.294	20262.039
749.422	20209.765
749.550	20257.196
749.678	20247.333
749.806	20297.216
749.934	20347.196
750.063	20430.255
750.191	20517.078
750.319	20448.059
750.447	20487.294
750.575	20537.020
750.703	20387.627
750.831	20501.118
750.959	20516.196
751.088	20477.725
751.216	20452.549
751.344	20412.333
751.472	20500.490
751.600	20517.098
751.728	20559.569
751.856	20580.255
751.984	20576.627
752.113	20574.784
752.241	20523.569
752.369	20601.353
752.497	20643.471
752.625	20494.451
752.753	20515.824
752.881	20468.275
753.009	20417.039
753.138	20486.608
753.266	20455.961
753.394	20496.314
753.522	20510.667
753.650	20439.275
753.778	20475.784
753.906	20512.588
754.034	20542.373
754.163	20535.039
754.291	20677.765
754.419	20550.706
754.547	20495.569
754.675	20529.451
754.803	20465.490
754.931	20448.510
755.059	20559.235
755.188	20573.941
755.316	20468.059
755.444	20550.902
755.572	20557.824
755.700	20500.216
755.828	20485.863
755.956	20568.902
756.084	20543.941
756.213	20609.784
756.341	20640.922
756.469	20609.667
756.597	20791.980
756.725	20683.882
756.853	20743.980
756.981	20776.882
757.109	20780.627
757.238	20672.824
757.366	20762.882
757.494	20828.020
757.622	20769.196
757.750	20795.686
757.878	20848.588
758.006	20827.255
758.134	20908.980
758.263	20917.902
758.391	20979.765
758.519	20949.490
758.647	20963.608
758.775	21065.745
758.903	20947.471
759.031	21089.980
759.159	21146.706
759.288	21304.882
759.416	21106.667
759.544	21271.902
759.672	21223.804
759.800	21311.980
759.928	21298.275
760.056	21399.902
760.184	21246.373
760.313	21311.451
760.441	21333.608
760.569	21439.922
760.697	21541.588
760.825	21490.706
760.953	21550.078
761.081	21522.373
761.209	21478.294
761.338	21487.745
761.466	21590.118
761.594	21703.235
761.722	21652.255
761.850	21497.843
761.978	21592.980
762.106	21640.647
762.234	21595.490
762.363	21595.627
762.491	21569.412
762.619	21660.157
762.747	21697.490
762.875	21663.706
763.003	21640.118
763.131	21630.431
763.259	21590.863
763.388	21641.471
763.516	21621.392
763.644	21643.294
763.772	21701.510
763.900	21697.843
764.028	21765.804
764.156	21833.275
764.284	21803.922
764.413	21735.157
764.541	21909.431
764.669	21824.804
764.797	21894.549
764.925	21920.059
765.053	21812.980
765.181	21920.020
765.309	21870.824
765.438	21889.745
765.566	21921.549
765.694	21918.118
765.822	22125.059
765.950	21941.980
766.078	21958.059
766.206	21903.882
766.334	21913.235
766.463	21908.255
766.591	21921.627
766.719	21928.588
766.847	21911.784
766.975	21877.882
767.103	21793.882
767.231	21935.176
767.359	21843.098
767.488	21900.451
767.616	21866.686
767.744	21901.118
767.872	21937.471
768.000	21907.686
768.128	21989.373
768.256	21963.922
768.384	21921.333
768.513	21939.451
768.641	21943.686
768.769	22013.176
768.897	22029.235
769.025	22024.059
769.153	21912.078
769.281	22017.098
769.409	21882.824
769.538	21895.020
769.666	21918.529
769.794	21862.294
769.922	22030.765
770.050	21917.412
770.178	21962.824
770.306	21900.490
770.434	21838.118
770.563	21937.922
770.691	21967.392
770.819	21928.980
770.947	22023.529
771.075	21953.471
771.203	21926.863
771.331	22072.549
771.459	21981.961
771.588	21925.078
771.716	21833.039
771.844	21912.412
771.972	21839.098
772.100	21782.569
772.228	21762.353
772.356	21834.157
772.484	21711.765
772.613	21744.471
772.741	21743.608
772.869	21853.039
772.997	21738.059
773.125	21841.314
773.253	21810.941
773.381	21667.451
773.509	21749.176
773.638	21747.824
773.766	21646.725
773.894	21599.078
774.022	21650.725
774.150	21579.608
774.278	21559.392
774.406	21542.843
774.534	21611.961
774.663	21617.980
774.791	21516.627
774.919	21561.059
775.047	21543.392
775.175	21518.353
775.303	21630.608
775.431	21383.745
775.559	21405.863
775.688	21416.784
775.816	21541.471
775.944	21365.294
776.072	21460.824
776.200	21403.490
776.328	21363.059
776.456	21312.569
776.584	21306.647
776.713	21399.431
776.841	21293.196
776.969	21405.667
777.097	21428.392
777.225	21393.824
777.353	21353.529
777.481	21332.373
777.609	21305.314
777.738	21228.569
777.866	21317.961
777.994	21276.137
778.122	21322.373
778.250	21360.333
778.378	21323.118
778.506	21242.451
778.634	21192.882
778.763	21397.314
778.891	21285.255
779.019	21326.137
779.147	21339.529
779.275	21313.765
779.403	21268.157
779.531	21210.412
779.659	21245.333
779.788	21177.059
779.916	21124.804
780.044	21121.706
780.172	21213.784
780.300	21117.098
780.428	21205.471
780.556	21269.588
780.684	21131.529
780.813	21061.392
780.941	20965.725
781.069	20994.078
781.197	21039.451
781.325	21142.216
781.453	20987.784
781.581	21045.392
781.709	20881.000
781.838	20877.667
781.966	20819.196
782.094	20754.157
782.222	20864.490
782.350	20731.294
782.478	20794.157
782.606	20731.294
782.734	20761.980
782.863	20662.627
782.991	20618.471
783.119	20621.275
783.247	20574.784
783.375	20608.784
783.503	20614.471
783.631	20626.824
783.759	20429.157
783.888	20507.431
784.016	20386.412
784.144	20381.569
784.272	20285.275
784.400	20327.294
784.528	20285.059
784.656	20350.098
784.784	20260.608
784.913	20168.471
785.041	20173.765
785.169	20141.882
785.297	20116.000
785.425	20052.922
785.553	20058.510
785.681	20038.725
785.809	20115.196
785.938	20034.588
786.066	19993.706
786.194	19829.373
786.322	19879.804
786.450	19839.255
786.578	19792.000
786.706	19866.804
786.834	19783.431
786.963	19811.098
787.091	19712.922
787.219	19658.725
787.347	19664.196
787.475	19686.549
787.603	19664.588
787.731	19658.627
787.859	19622.686
787.988	19738.922
788.116	19678.216
788.244	19611.039
788.372	19517.961
788.500	19584.000
788.628	19557.824
788.756	19494.824
788.884	19526.980
789.013	19471.157
789.141	19452.608
789.269	19482.490
789.397	19396.118
789.525	19461.804
789.653	19438.588
789.781	19297.392
789.909	19310.471
790.038	19290.000
790.166	19179.373
790.294	19139.059
790.422	19027.725
790.550	19006.137
790.678	19022.902
790.806	18897.706
790.934	18894.020
791.063	18878.745
791.191	18839.980
791.319	18667.451
791.447	18756.706
791.575	18615.373
791.703	18593.510
791.831	18592.059
791.959	18532.275
792.088	18523.902
792.216	18454.176
792.344	18406.765
792.472	18319.490
792.600	18315.039
792.728	18227.667
792.856	18314.373
792.984	18147.569
793.113	18193.196
793.241	18160.608
793.369	18113.471
793.497	18132.039
793.625	18192.529
793.753	18091.588
793.881	17959.098
794.009	18064.235
794.138	17958.961
794.266	17982.647
794.394	17909.510
794.522	17952.000
794.650	17847.059
794.778	17883.294
794.906	17867.353
795.034	17814.824
795.163	17783.216
795.291	17721.588
795.419	17883.549
795.547	17696.451
795.675	17719.412
795.803	17801.686
795.931	17695.843
796.059	17615.412
796.188	17615.980
796.316	17570.490
796.444	17632.784
796.572	17608.118
796.700	17574.373
796.828	17531.902
796.956	17444.118
797.084	17390.549
797.213	17447.745
797.341	17323.804
797.469	17332.255
797.597	17299.431
797.725	17292.451
797.853	17216.255
797.981	17119.275
798.109	17145.961
798.238	17033.157
798.366	17057.373
798.494	16902.863
798.622	16977.804
798.750	17001.686
798.878	16946.686
799.006	16908.569
799.134	16798.078
799.263	16733.196
799.391	16699.431
799.519	16656.608
799.647	16668.000
799.775	16607.314
799.903	16584.725
800.031	16569.706
800.159	16541.000
800.288	16494.431
800.416	16453.157
800.544	16405.667
800.672	16274.549
800.800	16315.784
800.928	16295.157
801.056	16279.529
801.184	16281.118
801.313	16311.882
801.441	16185.176
801.569	16212.431
801.697	16156.745
801.825	16134.078
801.953	16128.588
802.081	16174.098
802.209	16062.431
802.338	16066.765
802.466	16026.882
802.594	16057.588
802.722	15953.725
802.850	15961.941
802.978	15927.059
803.106	15876.549
803.234	15926.118
803.363	15899.843
803.491	15868.294
803.619	15767.412
803.747	15771.627
803.875	15675.020
804.003	15687.373
804.131	15688.451
804.259	15694.353
804.388	15627.686
804.516	15569.510
804.644	15647.941
804.772	15566.059
804.900	15625.314
805.028	15523.216
805.156	15541.412
805.284	15504.059
805.413	15494.784
805.541	15474.667
805.669	15463.588
805.797	15472.745
805.925	15383.196
806.053	15327.804
806.181	15410.549
806.309	15294.196
806.438	15280.647
806.566	15279.961
806.694	15224.157
806.822	15140.216
806.950	15145.451
807.078	15053.627
807.206	15128.627
807.334	15081.529
807.463	15080.157
807.591	15003.961
807.719	15081.667
807.847	15021.059
807.975	14940.510
808.103	14865.863
808.231	14896.294
808.359	14824.412
808.488	14764.294
808.616	14733.902
808.744	14669.118
808.872	14663.843
809.000	14652.882
809.128	14663.373
809.256	14502.745
809.384	14523.961
809.513	14421.667
809.641	14469.451
809.769	14473.039
809.897	14404.314
810.025	14443.882
810.153	14363.627
810.281	14436.196
810.409	14344.686
810.538	14292.980
810.666	14274.039
810.794	14237.020
810.922	14259.078
811.050	14326.392
811.178	14239.196
811.306	14197.804
811.434	14199.765
811.563	14118.020
811.691	14209.569
811.819	14148.529
811.947	14100.078
812.075	14075.294
812.203	14146.686
812.331	14044.000
812.459	14066.843
812.588	13973.667
812.716	14002.059
812.844	13932.510
812.972	13849.608
813.100	13868.902
813.228	13859.863
813.356	13793.863
813.484	13803.824
813.613	13737.686
813.741	13655.275
813.869	12908.549
