spectrometer_0_referenz_at_650.00nm_cut_at_1184.50Y_01.dat
02.05.2022
11:31:04
cut middle at Y: 1184.50
top cursor: 1210 down cursor: 1159 mean of: 51 lines , 2560 datapoints
wavelength(nm)	intensity[arb. units]
485.997	6326.255
486.125	5788.000
486.253	5666.961
486.381	5714.392
486.510	5792.098
486.638	5913.647
486.766	5877.706
486.894	5897.078
487.022	5979.020
487.150	5926.882
487.278	5947.020
487.406	5962.941
487.535	5997.137
487.663	6057.686
487.791	6057.608
487.919	6039.922
488.047	6014.627
488.175	6081.588
488.303	6097.824
488.431	6111.431
488.560	6166.882
488.688	6170.020
488.816	6160.784
488.944	6228.020
489.072	6190.902
489.200	6216.039
489.328	6301.353
489.456	6349.745
489.585	6345.627
489.713	6341.275
489.841	6343.706
489.969	6379.882
490.097	6377.784
490.225	6437.392
490.353	6500.275
490.481	6490.569
490.610	6520.784
490.738	6502.314
490.866	6588.627
490.994	6576.471
491.122	6610.804
491.250	6593.667
491.378	6619.706
491.506	6696.451
491.635	6701.039
491.763	6700.392
491.891	6700.490
492.019	6766.706
492.147	6730.569
492.275	6722.549
492.403	6693.000
492.531	6894.353
492.660	6795.451
492.788	6791.549
492.916	6879.529
493.044	6813.392
493.172	6882.608
493.300	6899.000
493.428	6863.353
493.556	6972.706
493.685	6996.137
493.813	7025.353
493.941	7050.216
494.069	7075.784
494.197	7112.667
494.325	7167.549
494.453	7323.529
494.581	7245.980
494.710	7307.647
494.838	7349.882
494.966	7431.118
495.094	7391.137
495.222	7518.255
495.350	7505.137
495.478	7586.608
495.606	7611.490
495.735	7622.706
495.863	7629.157
495.991	7716.431
496.119	7696.647
496.247	7787.314
496.375	7731.176
496.503	7740.745
496.631	7729.686
496.760	7685.784
496.888	7750.686
497.016	7718.255
497.144	7720.255
497.272	7708.745
497.400	7716.176
497.528	7676.922
497.656	7658.706
497.785	7630.294
497.913	7597.373
498.041	7607.627
498.169	7601.529
498.297	7529.882
498.425	7717.608
498.553	7565.627
498.681	7571.216
498.810	7632.725
498.938	7628.569
499.066	7636.667
499.194	7710.882
499.322	7675.804
499.450	7670.667
499.578	7678.235
499.706	7687.059
499.835	7714.118
499.963	7727.176
500.091	7779.098
500.219	7802.314
500.347	7813.137
500.475	7837.216
500.603	7847.667
500.731	7862.333
500.860	7898.608
500.988	7943.667
501.116	7904.824
501.244	7999.216
501.372	8051.216
501.500	8010.235
501.628	8063.784
501.756	8121.412
501.885	8198.235
502.013	8156.431
502.141	8233.412
502.269	8219.529
502.397	8341.020
502.525	8273.922
502.653	8337.294
502.781	8314.255
502.910	8348.000
503.038	8376.569
503.166	8393.412
503.294	8403.686
503.422	8397.745
503.550	8388.020
503.678	8410.471
503.806	8422.765
503.935	8439.647
504.063	8453.118
504.191	8405.118
504.319	8436.078
504.447	8368.471
504.575	8399.431
504.703	8454.902
504.831	8424.725
504.960	8420.353
505.088	8438.686
505.216	8491.157
505.344	8543.980
505.472	8485.804
505.600	8494.078
505.728	8562.471
505.856	8532.431
505.985	8556.745
506.113	8546.078
506.241	8561.647
506.369	8554.529
506.497	8592.804
506.625	8650.863
506.753	8621.569
506.881	8694.843
507.010	8675.902
507.138	8677.627
507.266	8736.745
507.394	8717.765
507.522	8818.980
507.650	8790.000
507.778	8813.392
507.906	8875.588
508.035	8824.627
508.163	8903.000
508.291	8893.412
508.419	8976.216
508.547	8975.333
508.675	9048.137
508.803	8986.020
508.931	8987.667
509.060	9052.784
509.188	9096.569
509.316	9084.667
509.444	9094.255
509.572	9299.431
509.700	9197.922
509.828	9223.627
509.956	9258.118
510.085	9236.294
510.213	9237.902
510.341	9258.745
510.469	9332.569
510.597	9352.216
510.725	9387.196
510.853	9487.255
510.981	9464.471
511.110	9467.118
511.238	9485.843
511.366	9526.078
511.494	9547.941
511.622	9589.196
511.750	9629.510
511.878	9677.863
512.006	9648.275
512.135	9742.098
512.263	9737.510
512.391	9769.118
512.519	9840.863
512.647	9766.333
512.775	9851.667
512.903	9885.353
513.031	9893.765
513.160	9930.294
513.288	10059.980
513.416	9981.824
513.544	10002.725
513.672	10028.255
513.800	10019.039
513.928	10018.275
514.056	10085.098
514.185	9982.471
514.313	10002.941
514.441	10099.333
514.569	10050.431
514.697	10027.843
514.825	9983.804
514.953	10046.980
515.081	9979.216
515.210	9989.118
515.338	10048.412
515.466	9975.961
515.594	9948.922
515.722	9934.902
515.850	9981.549
515.978	9927.314
516.106	9970.961
516.235	9960.686
516.363	9979.137
516.491	9940.059
516.619	10006.529
516.747	10070.745
516.875	10016.922
517.003	10013.275
517.131	9983.941
517.260	10005.725
517.388	10090.902
517.516	10118.314
517.644	10154.706
517.772	10185.471
517.900	10174.020
518.028	10264.647
518.156	10323.020
518.284	10311.843
518.413	10306.510
518.541	10431.078
518.669	10408.392
518.797	10426.176
518.925	10422.294
519.053	10483.627
519.181	10503.294
519.309	10494.745
519.438	10601.980
519.566	10650.471
519.694	10624.667
519.822	10702.510
519.950	10683.843
520.078	10768.902
520.206	10789.922
520.334	10870.176
520.463	10848.725
520.591	10877.647
520.719	10893.647
520.847	10895.451
520.975	10908.667
521.103	11004.020
521.231	10938.333
521.359	11141.412
521.488	10990.451
521.616	11057.216
521.744	10997.804
521.872	11026.000
522.000	10998.059
522.128	11006.353
522.256	11048.275
522.384	10988.784
522.513	10968.745
522.641	11009.647
522.769	11082.863
522.897	11105.176
523.025	11087.353
523.153	11052.882
523.281	11091.412
523.409	11046.294
523.538	11060.196
523.666	11006.686
523.794	11068.725
523.922	11071.725
524.050	11072.549
524.178	11076.490
524.306	11102.039
524.434	11218.745
524.563	11269.784
524.691	11352.196
524.819	11294.941
524.947	11364.686
525.075	11428.059
525.203	11490.157
525.331	11553.706
525.459	11658.725
525.588	11642.176
525.716	11795.294
525.844	11767.059
525.972	11871.941
526.100	11924.725
526.228	11990.725
526.356	11936.392
526.484	12095.392
526.613	12107.725
526.741	12162.098
526.869	12214.667
526.997	12255.627
527.125	12298.098
527.253	12308.980
527.381	12453.216
527.509	12443.529
527.638	12491.510
527.766	12560.529
527.894	12566.137
528.022	12703.196
528.150	12617.686
528.278	12683.314
528.406	12675.902
528.534	12720.235
528.663	12701.647
528.791	12789.686
528.919	12769.039
529.047	12919.039
529.175	12742.902
529.303	12798.314
529.431	12783.627
529.559	12831.392
529.688	12784.745
529.816	12786.098
529.944	12887.745
530.072	12796.588
530.200	12849.235
530.328	12837.843
530.456	12847.686
530.584	12833.078
530.713	12832.902
530.841	12817.137
530.969	12835.510
531.097	12829.255
531.225	12863.294
531.353	13011.922
531.481	12941.588
531.609	13002.216
531.738	12894.412
531.866	13002.333
531.994	13011.176
532.122	13085.784
532.250	12967.824
532.378	12927.392
532.506	12968.588
532.634	12995.824
532.763	12925.020
532.891	13011.451
533.019	13006.235
533.147	13041.176
533.275	13013.353
533.403	13066.863
533.531	13052.765
533.659	13097.961
533.788	13101.392
533.916	13091.078
534.044	13116.961
534.172	13221.412
534.300	13254.510
534.428	13223.784
534.556	13400.431
534.684	13280.098
534.813	13264.157
534.941	13240.961
535.069	13298.078
535.197	13245.843
535.325	13291.039
535.453	13367.373
535.581	13400.333
535.709	13283.922
535.838	13400.314
535.966	13405.902
536.094	13393.843
536.222	13403.725
536.350	13417.588
536.478	13458.353
536.606	13532.745
536.734	13532.745
536.863	13533.000
536.991	13573.745
537.119	13554.235
537.247	13526.412
537.375	13713.647
537.503	13591.059
537.631	13605.824
537.759	13572.745
537.888	13575.000
538.016	13812.647
538.144	13741.255
538.272	13654.235
538.400	13712.490
538.528	13757.235
538.656	13830.176
538.784	13824.529
538.913	13900.039
539.041	13869.902
539.169	13870.020
539.297	13843.863
539.425	13996.980
539.553	14016.039
539.681	14082.098
539.809	14124.667
539.938	14095.490
540.066	14121.373
540.194	14171.098
540.322	14357.745
540.450	14310.804
540.578	14271.000
540.706	14405.725
540.834	14402.451
540.963	14564.922
541.091	14422.451
541.219	14505.078
541.347	14640.882
541.475	14606.882
541.603	14619.961
541.731	14624.059
541.859	14682.137
541.988	14690.941
542.116	14919.529
542.244	14770.255
542.372	15022.431
542.500	14824.843
542.628	14881.647
542.756	14854.196
542.884	14876.882
543.013	14846.235
543.141	14926.588
543.269	14840.784
543.397	14772.059
543.525	14856.333
543.653	14895.490
543.781	14810.216
543.909	14782.510
544.038	14860.039
544.166	14839.745
544.294	14899.941
544.422	14700.961
544.550	14783.157
544.678	14765.706
544.806	14692.431
544.934	14590.784
545.063	14700.549
545.191	14723.882
545.319	14600.882
545.447	14453.843
545.575	14505.373
545.703	14538.314
545.831	14481.529
545.959	14432.686
546.088	14392.235
546.216	14354.902
546.344	14427.490
546.472	14579.412
546.600	14442.392
546.728	14475.980
546.856	14494.137
546.984	14560.706
547.113	14627.608
547.241	14638.843
547.369	14714.549
547.497	14692.078
547.625	14703.549
547.753	14750.235
547.881	14647.098
548.009	14653.843
548.138	14735.941
548.266	14696.549
548.394	14734.392
548.522	14637.647
548.650	14829.020
548.778	14735.843
548.906	14665.588
549.034	14775.451
549.163	14698.941
549.291	14718.902
549.419	14803.510
549.547	15061.588
549.675	15038.471
549.803	15091.784
549.931	15202.902
550.059	15274.647
550.188	15412.098
550.316	15511.059
550.444	15615.000
550.572	15662.843
550.700	15740.843
550.828	15897.686
550.956	15932.137
551.084	16037.078
551.213	16073.627
551.341	16146.706
551.469	16139.804
551.597	16174.392
551.725	16294.647
551.853	16246.020
551.981	16282.667
552.109	16252.118
552.238	16333.353
552.366	16316.804
552.494	16353.059
552.622	16376.431
552.750	16406.941
552.878	16472.275
553.006	16486.098
553.134	16474.667
553.263	16482.745
553.391	16506.686
553.519	16686.137
553.647	16545.392
553.775	16599.569
553.903	16726.000
554.031	16614.549
554.159	16588.980
554.288	16686.078
554.416	16666.588
554.544	16741.686
554.672	16665.333
554.800	16672.216
554.928	16715.275
555.056	16711.059
555.184	16792.569
555.313	16763.020
555.441	16722.725
555.569	16771.471
555.697	16760.275
555.825	16770.647
555.953	16777.647
556.081	16734.176
556.209	16774.471
556.338	16770.667
556.466	16945.549
556.594	16817.431
556.722	16811.843
556.850	16876.686
556.978	16819.294
557.106	16828.902
557.234	16848.706
557.363	16955.608
557.491	16941.510
557.619	16933.451
557.747	16854.569
557.875	16882.706
558.003	16960.275
558.131	16890.216
558.259	16887.647
558.388	16915.118
558.516	16933.294
558.644	16887.608
558.772	17008.471
558.900	16916.529
559.028	16908.000
559.156	16938.765
559.284	16892.314
559.413	16895.176
559.541	16978.863
559.669	16922.431
559.797	17048.667
559.925	16979.333
560.053	17064.686
560.181	16978.784
560.309	17031.196
560.438	17092.647
560.566	17095.039
560.694	17008.627
560.822	17153.667
560.950	17092.020
561.078	17022.451
561.206	17168.451
561.334	16943.902
561.463	16970.098
561.591	17088.745
561.719	17020.765
561.847	17072.451
561.975	16989.490
562.103	17138.863
562.231	17133.490
562.359	17049.333
562.488	17200.529
562.616	17187.353
562.744	17160.608
562.872	17171.039
563.000	17128.784
563.128	17214.235
563.256	17209.980
563.384	17421.118
563.513	17223.922
563.641	17323.039
563.769	17325.824
563.897	17311.490
564.025	17343.902
564.153	17390.294
564.281	17572.902
564.409	17448.255
564.538	17467.588
564.666	17528.882
564.794	17538.627
564.922	17489.176
565.050	17638.824
565.178	17589.824
565.306	17644.333
565.434	17685.333
565.563	17859.000
565.691	17809.353
565.819	17996.118
565.947	17803.549
566.075	17828.569
566.203	17919.784
566.331	17889.863
566.459	18782.176
566.588	17948.196
566.716	17991.784
566.844	18008.686
566.972	18105.647
567.100	18144.784
567.228	18188.235
567.356	18248.686
567.484	18196.196
567.613	18343.275
567.741	18377.373
567.869	18346.686
567.997	18380.647
568.125	18477.647
568.253	18601.059
568.381	18573.569
568.509	18553.529
568.638	18565.333
568.766	18633.804
568.894	18606.549
569.022	18648.588
569.150	18674.549
569.278	18629.588
569.406	18815.588
569.534	18808.118
569.663	18729.059
569.791	18775.588
569.919	18875.392
570.047	18970.922
570.175	18850.373
570.303	18895.412
570.431	18884.529
570.559	18983.980
570.688	19138.647
570.816	18965.647
570.944	19036.235
571.072	19017.922
571.200	18977.059
571.328	18993.275
571.456	19117.745
571.584	19085.255
571.713	19051.333
571.841	19116.627
571.969	19240.843
572.097	19122.647
572.225	19001.529
572.353	19028.176
572.481	18983.667
572.609	19022.392
572.738	19008.098
572.866	19043.137
572.994	19042.706
573.122	19028.765
573.250	19027.941
573.378	19040.137
573.506	19029.549
573.634	19113.784
573.763	19048.353
573.891	18995.098
574.019	19133.157
574.147	19002.353
574.275	19004.686
574.403	19040.961
574.531	19012.961
574.659	18966.863
574.788	19050.510
574.916	19187.863
575.044	19058.000
575.172	19039.353
575.300	19019.882
575.428	19016.431
575.556	19056.765
575.684	19064.490
575.813	19107.588
575.941	19104.039
576.069	19094.784
576.197	19178.078
576.325	19175.784
576.453	19182.706
576.581	19208.412
576.709	19292.941
576.838	19254.451
576.966	19412.804
577.094	19553.667
577.222	19472.118
577.350	19455.294
577.478	19558.706
577.606	19611.255
577.734	19624.059
577.863	19752.451
577.991	19881.510
578.119	19941.608
578.247	19991.118
578.375	20110.686
578.503	20112.333
578.631	20173.922
578.759	20241.529
578.888	20433.608
579.016	20219.059
579.144	20340.098
579.272	20420.765
579.400	20448.549
579.528	20514.000
579.656	20606.176
579.784	20590.255
579.913	20685.706
580.041	20868.118
580.169	20753.804
580.297	20885.471
580.425	20930.098
580.553	20910.922
580.681	21014.784
580.809	21088.039
580.938	21207.647
581.066	21322.569
581.194	21313.941
581.322	21395.020
581.450	21502.157
581.578	21507.510
581.706	21672.078
581.834	21692.804
581.963	21690.431
582.091	21750.451
582.219	21855.510
582.347	21884.882
582.475	21914.471
582.603	22001.961
582.731	22096.176
582.859	22058.765
582.988	22168.235
583.116	22198.314
583.244	22313.667
583.372	22358.333
583.500	22402.353
583.628	22518.608
583.756	22517.039
583.884	22554.627
584.013	22645.020
584.141	22620.725
584.269	22660.333
584.397	22753.078
584.525	22762.588
584.653	22882.608
584.781	22922.373
584.909	22961.118
585.038	23058.706
585.166	23089.157
585.294	23039.020
585.422	23060.608
585.550	23110.333
585.678	23110.706
585.806	23141.843
585.934	23172.255
586.063	23185.078
586.191	23171.863
586.319	23240.451
586.447	23240.392
586.575	23184.961
586.703	23254.294
586.831	23210.098
586.959	23196.373
587.088	23105.843
587.216	23250.745
587.344	23162.412
587.472	23351.980
587.600	23113.608
587.728	23183.627
587.856	23189.686
587.984	23221.843
588.113	23316.255
588.241	23291.078
588.369	23403.647
588.497	23417.196
588.625	23424.529
588.753	23602.451
588.881	23532.353
589.009	23564.196
589.138	23618.549
589.266	23585.784
589.394	23571.196
589.522	23679.137
589.650	23774.784
589.778	23799.843
589.906	23864.118
590.034	23799.020
590.163	23860.314
590.291	23928.392
590.419	23877.686
590.547	24029.373
590.675	24078.745
590.803	24130.922
590.931	24121.980
591.059	24072.275
591.188	24078.294
591.316	24043.078
591.444	24062.196
591.572	24148.392
591.700	24043.314
591.828	24111.863
591.956	24101.431
592.084	24030.235
592.213	24098.255
592.341	24069.078
592.469	24171.196
592.597	24077.118
592.725	23986.078
592.853	24068.255
592.981	24096.235
593.109	24078.608
593.238	24030.863
593.366	24014.647
593.494	23968.216
593.622	23924.725
593.750	23940.569
593.878	23951.020
594.006	23880.569
594.134	23849.961
594.263	23939.784
594.391	23884.510
594.519	23822.118
594.647	23911.510
594.775	23781.765
594.903	23763.529
595.031	23784.745
595.159	23779.176
595.288	23699.569
595.416	23754.902
595.544	23738.608
595.672	23559.275
595.800	23746.647
595.928	23569.902
596.056	23591.529
596.184	23560.039
596.313	23701.471
596.441	23578.941
596.569	23639.294
596.697	23523.725
596.825	23427.020
596.953	23453.980
597.081	23442.941
597.209	23493.824
597.338	23523.255
597.466	23520.294
597.594	23529.157
597.722	23714.098
597.850	23620.608
597.978	23756.961
598.106	23831.373
598.234	23835.235
598.363	23820.275
598.491	23964.627
598.619	23878.824
598.747	24022.000
598.875	24156.647
599.003	24169.314
599.131	24260.706
599.259	24294.314
599.388	24247.039
599.516	24397.196
599.644	24477.353
599.772	24567.588
599.900	24462.020
600.028	24617.216
600.156	24640.765
600.284	24682.765
600.413	24793.373
600.541	24911.196
600.669	24955.902
600.797	24901.765
600.925	24982.373
601.053	25022.725
601.181	25064.157
601.309	25067.686
601.438	25095.706
601.566	25084.255
601.694	25087.745
601.822	25320.588
601.950	25118.863
602.078	25209.353
602.206	25313.804
602.334	25243.490
602.463	25247.314
602.591	25386.569
602.719	25331.647
602.847	25542.118
602.975	25361.588
603.103	25390.765
603.231	25441.431
603.359	25450.431
603.488	25421.412
603.616	25480.922
603.744	25499.804
603.872	25500.686
604.000	25529.725
604.128	25547.902
604.256	25547.333
604.384	25599.216
604.513	25662.392
604.641	25638.137
604.769	25725.255
604.897	25593.647
605.025	25483.059
605.153	25625.882
605.281	25723.804
605.409	25637.647
605.538	25626.020
605.666	25623.686
605.794	25616.941
605.922	25611.314
606.050	25561.941
606.178	25627.882
606.306	25632.549
606.434	25659.451
606.563	25681.529
606.691	25717.137
606.819	25676.902
606.947	25676.588
607.075	25710.667
607.203	25652.235
607.331	25647.314
607.459	25722.235
607.588	25670.373
607.716	25700.431
607.844	25734.314
607.972	25761.314
608.100	25653.412
608.228	25665.059
608.356	25636.490
608.484	25706.824
608.613	25740.157
608.741	25605.373
608.869	25644.392
608.997	25703.451
609.125	25666.784
609.253	25645.725
609.381	25580.863
609.509	25616.686
609.638	25580.863
609.766	25568.647
609.894	25606.667
610.022	25588.647
610.150	25688.078
610.278	25462.784
610.406	25515.157
610.534	25504.588
610.663	25436.686
610.791	25619.529
610.919	25461.078
611.047	25481.333
611.175	25411.745
611.303	25446.863
611.431	25391.667
611.559	25395.275
611.688	25425.824
611.816	25412.392
611.944	25301.255
612.072	25370.137
612.200	25357.569
612.328	25487.804
612.456	25436.490
612.584	25613.275
612.713	25438.255
612.841	25464.627
612.969	25420.706
613.097	25518.706
613.225	25517.882
613.353	25585.863
613.481	25572.686
613.609	25599.157
613.738	25559.157
613.866	25695.863
613.994	25751.196
614.122	25758.353
614.250	25652.353
614.378	25691.863
614.506	25692.039
614.634	25807.373
614.763	25737.333
614.891	25760.804
615.019	25761.922
615.147	25787.275
615.275	25844.157
615.403	25763.549
615.531	25712.392
615.659	25776.000
615.788	25756.490
615.916	25922.039
616.044	25846.765
616.172	25978.392
616.300	25823.000
616.428	25933.118
616.556	25868.353
616.684	25864.314
616.813	25810.863
616.941	25875.686
617.069	25871.961
617.197	26098.078
617.325	25974.490
617.453	26015.706
617.581	26077.000
617.709	25935.235
617.838	26097.824
617.966	26231.333
618.094	26154.784
618.222	26296.686
618.350	26421.784
618.478	26345.882
618.606	26559.686
618.734	26482.373
618.863	26564.608
618.991	26530.608
619.119	26612.235
619.247	26699.196
619.375	26667.824
619.503	26804.549
619.631	26936.020
619.759	26780.902
619.888	26945.451
620.016	27050.627
620.144	27143.353
620.272	27037.824
620.400	27144.333
620.528	27219.980
620.656	27255.784
620.784	27222.000
620.913	27263.392
621.041	27400.843
621.169	27465.353
621.297	27422.941
621.425	27507.863
621.553	27563.490
621.681	27636.922
621.809	27592.373
621.938	27663.000
622.066	27777.000
622.194	27718.824
622.322	27813.275
622.450	27914.471
622.578	27819.627
622.706	27911.902
622.834	27918.922
622.963	27994.647
623.091	27915.667
623.219	27952.235
623.347	28073.647
623.475	28041.922
623.603	28070.627
623.731	28099.255
623.859	28187.941
623.988	28151.588
624.116	28259.941
624.244	28297.431
624.372	28277.471
624.500	28289.059
624.628	28331.765
624.756	28336.157
624.884	28476.961
625.013	28574.569
625.141	28467.333
625.269	28400.137
625.397	28449.431
625.525	28566.353
625.653	28435.059
625.781	28597.059
625.909	28486.353
626.038	28462.412
626.166	28479.824
626.294	28498.333
626.422	28597.098
626.550	28638.431
626.678	28642.588
626.806	28633.020
626.934	28679.961
627.063	28701.627
627.191	28738.157
627.319	28853.431
627.447	28796.137
627.575	28870.510
627.703	28938.098
627.831	28951.961
627.959	28932.255
628.088	29031.294
628.216	29106.451
628.344	29000.843
628.472	29020.686
628.600	29159.922
628.728	29016.725
628.856	28980.451
628.984	28995.941
629.113	29007.529
629.241	28995.980
629.369	28958.765
629.497	29030.118
629.625	28925.078
629.753	28950.000
629.881	28971.098
630.009	28993.608
630.138	29053.627
630.266	29035.294
630.394	29211.216
630.522	29076.627
630.650	28964.588
630.778	28922.529
630.906	28904.941
631.034	28808.882
631.163	28898.392
631.291	28712.490
631.419	28756.549
631.547	28668.843
631.675	28571.569
631.803	28530.529
631.931	28522.255
632.059	28701.216
632.188	28578.667
632.316	28541.843
632.444	28563.039
632.572	28459.745
632.700	28484.745
632.828	28477.569
632.956	28318.118
633.084	28361.471
633.213	28435.804
633.341	28270.765
633.469	28332.745
633.597	28289.980
633.725	28201.843
633.853	28202.412
633.981	28153.078
634.109	28284.216
634.238	28099.725
634.366	28028.686
634.494	27999.588
634.622	28003.314
634.750	27935.784
634.878	27864.549
635.006	27800.059
635.134	27770.627
635.263	27898.392
635.391	27752.451
635.519	27719.000
635.647	27689.922
635.775	27655.039
635.903	27626.078
636.031	27553.882
636.159	27567.216
636.288	27477.549
636.416	27563.941
636.544	27496.804
636.672	27418.961
636.800	27439.549
636.928	27330.745
637.056	27482.039
637.184	27340.078
637.313	27442.137
637.441	27549.098
637.569	27622.275
637.697	27658.725
637.825	27597.216
637.953	27716.471
638.081	27747.412
638.209	27863.804
638.338	27851.804
638.466	28000.353
638.594	28035.137
638.722	28134.216
638.850	28284.392
638.978	28359.000
639.106	28336.196
639.234	28378.255
639.363	28479.608
639.491	28475.294
639.619	28654.824
639.747	28729.588
639.875	28710.902
640.003	28783.451
640.131	28927.294
640.259	28961.510
640.388	29071.157
640.516	29064.510
640.644	29092.275
640.772	29168.824
640.900	29097.824
641.028	29186.490
641.156	29103.667
641.284	29098.980
641.413	29259.431
641.541	29197.745
641.669	29111.588
641.797	29285.471
641.925	29202.098
642.053	29331.529
642.181	29121.843
642.309	29101.667
642.438	29198.843
642.566	29150.333
642.694	29264.157
642.822	29135.804
642.950	29072.686
643.078	29131.431
643.206	29124.608
643.334	29167.490
643.463	29183.039
643.591	29126.569
643.719	29233.216
643.847	29259.235
643.975	29252.902
644.103	29141.078
644.231	29295.255
644.359	29310.333
644.488	29271.471
644.616	29333.000
644.744	29324.176
644.872	29308.941
645.000	29427.216
645.128	29356.706
645.256	29343.314
645.384	29388.471
645.513	29350.059
645.641	29337.510
645.769	29411.510
645.897	29505.627
646.025	29497.980
646.153	29476.882
646.281	29537.176
646.409	29453.431
646.538	29490.863
646.666	29433.647
646.794	29496.471
646.922	29462.824
647.050	29392.490
647.178	29383.216
647.306	29528.353
647.434	29383.137
647.563	29294.765
647.691	29380.882
647.819	29371.549
647.947	29335.549
648.075	29300.176
648.203	29278.078
648.331	29244.922
648.459	29259.549
648.588	29226.961
648.716	29293.020
648.844	29237.275
648.972	29223.804
649.100	29274.647
649.228	29311.392
649.356	29343.333
649.484	29333.745
649.613	29402.941
649.741	29363.510
649.869	29394.863
649.997	29403.980
650.125	29422.294
650.253	29413.745
650.381	29400.471
650.509	29268.373
650.638	29241.510
650.766	29462.941
650.894	29304.588
651.022	29268.353
651.150	29242.392
651.278	29231.098
651.406	29228.314
651.534	29257.255
651.663	29312.157
651.791	29517.039
651.919	29389.667
652.047	29297.647
652.175	29406.824
652.303	29460.039
652.431	29466.745
652.559	29484.255
652.688	29476.275
652.816	29504.824
652.944	29373.275
653.072	29368.784
653.200	29388.588
653.328	29369.294
653.456	29362.353
653.584	29329.667
653.713	29413.196
653.841	29325.392
653.969	29367.569
654.097	29390.451
654.225	29372.941
654.353	29472.392
654.481	29412.059
654.609	29562.980
654.738	29555.294
654.866	29586.608
654.994	29621.686
655.122	29669.294
655.250	29727.529
655.378	29550.137
655.506	29653.392
655.634	29692.686
655.763	29494.078
655.891	29570.490
656.019	29477.039
656.147	29556.451
656.275	29569.216
656.403	29505.824
656.531	29385.765
656.659	29479.471
656.788	29574.392
656.916	29547.765
657.044	29564.294
657.172	29566.706
657.300	29736.431
657.428	29504.863
657.556	29535.824
657.684	29465.569
657.813	29570.353
657.941	29427.333
658.069	29459.118
658.197	29427.765
658.325	29467.647
658.453	29370.000
658.581	29230.137
658.709	29240.314
658.838	29399.706
658.966	29247.627
659.094	29270.725
659.222	29281.922
659.350	29219.529
659.478	29250.333
659.606	29332.196
659.734	29214.333
659.863	29143.902
659.991	29102.020
660.119	29134.235
660.247	29236.098
660.375	29076.431
660.503	29045.941
660.631	29089.020
660.759	28918.667
660.888	28890.588
661.016	28771.235
661.144	28845.176
661.272	28900.725
661.400	28807.373
661.528	28880.118
661.656	28827.961
661.784	28836.922
661.913	28866.902
662.041	29029.745
662.169	28932.118
662.297	29120.098
662.425	29012.020
662.553	29101.137
662.681	29084.686
662.809	29150.549
662.938	29111.706
663.066	29113.294
663.194	29125.745
663.322	29154.804
663.450	29246.039
663.578	29255.157
663.706	29508.157
663.834	29330.510
663.963	29398.980
664.091	29431.451
664.219	29384.686
664.347	29500.216
664.475	29581.824
664.603	29426.745
664.731	29439.255
664.859	29467.412
664.988	29532.980
665.116	29603.961
665.244	29703.137
665.372	29761.961
665.500	29821.157
665.628	29791.725
665.756	29795.157
665.884	29927.412
666.013	29967.765
666.141	30015.078
666.269	30052.353
666.397	30042.902
666.525	30040.824
666.653	30093.608
666.781	30255.569
666.909	30250.882
667.038	30348.510
667.166	30304.667
667.294	30332.471
667.422	30454.941
667.550	30480.647
667.678	30508.059
667.806	30610.588
667.934	30617.902
668.063	30638.882
668.191	30844.137
668.319	30883.392
668.447	30918.255
668.575	30959.059
668.703	30945.314
668.831	30909.176
668.959	30978.471
669.088	31210.196
669.216	31056.863
669.344	31134.941
669.472	31133.902
669.600	31159.529
669.728	31235.235
669.856	31105.824
669.984	31203.549
670.113	31067.196
670.241	31141.980
670.369	31153.098
670.497	31156.922
670.625	31096.588
670.753	31385.431
670.881	31429.157
671.009	31181.176
671.138	31198.745
671.266	31092.431
671.394	31097.020
671.522	31239.627
671.650	31221.353
671.778	31176.922
671.906	31171.549
672.034	31197.647
672.163	31097.000
672.291	31004.137
672.419	31177.804
672.547	31051.176
672.675	31087.627
672.803	31054.294
672.931	31026.529
673.059	31071.137
673.188	30937.216
673.316	30941.000
673.444	31025.431
673.572	31140.647
673.700	30886.176
673.828	30942.882
673.956	30895.176
674.084	30784.353
674.213	30850.549
674.341	30802.431
674.469	30729.235
674.597	30711.039
674.725	30799.216
674.853	30632.882
674.981	30718.078
675.109	30642.078
675.238	30591.941
675.366	30623.137
675.494	30594.039
675.622	30639.647
675.750	30682.882
675.878	30734.157
676.006	30585.255
676.134	30677.490
676.263	30633.980
676.391	30529.235
676.519	30514.353
676.647	30554.765
676.775	30546.765
676.903	30620.216
677.031	30543.490
677.159	30534.392
677.288	30671.686
677.416	30498.392
677.544	30483.647
677.672	30528.255
677.800	30535.314
677.928	30511.961
678.056	30548.725
678.184	30435.451
678.313	30578.137
678.441	30468.647
678.569	30666.471
678.697	30535.784
678.825	30490.373
678.953	30510.471
679.081	30520.451
679.209	30500.314
679.338	30529.824
679.466	30470.196
679.594	30483.608
679.722	30529.333
679.850	30523.471
679.978	30480.137
680.106	30543.157
680.234	30552.824
680.363	30611.706
680.491	30552.235
680.619	30759.294
680.747	30677.569
680.875	30741.490
681.003	30709.510
681.131	30723.843
681.259	30636.863
681.388	30682.137
681.516	30755.941
681.644	30623.020
681.772	30899.157
681.900	30638.529
682.028	30720.314
682.156	30752.392
682.284	30834.137
682.413	30884.941
682.541	30884.765
682.669	30980.255
682.797	31081.471
682.925	31144.667
683.053	31247.902
683.181	31241.039
683.309	31313.333
683.438	31351.863
683.566	31433.196
683.694	31451.667
683.822	31559.412
683.950	31565.765
684.078	31480.980
684.206	31643.510
684.334	31631.353
684.463	31754.000
684.591	31638.314
684.719	31634.020
684.847	31672.275
684.975	31653.314
685.103	31577.765
685.231	31780.353
685.359	31618.725
685.488	31739.627
685.616	31846.686
685.744	31783.725
685.872	31711.294
686.000	31842.608
686.128	31761.333
686.256	31739.569
686.384	31829.118
686.513	31784.667
686.641	31878.333
686.769	31790.510
686.897	31815.020
687.025	31702.529
687.153	31789.059
687.281	31592.961
687.409	31663.373
687.538	31547.725
687.666	31501.549
687.794	31445.451
687.922	31465.549
688.050	31356.490
688.178	31401.333
688.306	31379.745
688.434	31247.863
688.563	31165.451
688.691	31065.745
688.819	31269.706
688.947	31135.902
689.075	31123.176
689.203	31116.275
689.331	30993.333
689.459	31001.176
689.588	30972.804
689.716	30939.078
689.844	30964.412
689.972	30891.980
690.100	30847.255
690.228	30930.549
690.356	30839.412
690.484	30941.333
690.613	30812.118
690.741	30705.549
690.869	30662.098
690.997	30692.902
691.125	30990.490
691.253	30899.804
691.381	30707.784
691.509	30726.353
691.638	30709.412
691.766	30659.294
691.894	30613.157
692.022	30639.020
692.150	30652.392
692.278	30612.216
692.406	30627.157
692.534	30564.176
692.663	30597.353
692.791	30536.059
692.919	30618.686
693.047	30562.588
693.175	30571.529
693.303	30655.510
693.431	30645.745
693.559	30666.039
693.688	30732.569
693.816	30603.216
693.944	30552.059
694.072	30567.118
694.200	30572.824
694.328	30543.569
694.456	30635.882
694.584	30620.451
694.713	30634.804
694.841	30648.333
694.969	30702.922
695.097	30852.059
695.225	30645.941
695.353	30860.314
695.481	30751.235
695.609	30889.980
695.738	30766.137
695.866	30748.039
695.994	30708.902
696.122	30893.784
696.250	30733.157
696.378	30749.569
696.506	30733.765
696.634	30689.804
696.763	30725.627
696.891	30781.647
697.019	30780.922
697.147	30900.392
697.275	30905.686
697.403	30855.686
697.531	30925.804
697.659	30894.412
697.788	31100.176
697.916	30991.314
698.044	31188.627
698.172	31135.118
698.300	31167.961
698.428	31083.373
698.556	31135.392
698.684	31101.039
698.813	31178.745
698.941	31282.941
699.069	31106.020
699.197	31125.784
699.325	31068.980
699.453	31047.804
699.581	31159.863
699.709	31086.412
699.838	31115.039
699.966	31081.275
700.094	31117.392
700.222	31316.412
700.350	31118.882
700.478	31074.980
700.606	31114.431
700.734	31065.373
700.863	31073.745
700.991	31070.039
701.119	31073.333
701.247	31031.353
701.375	31156.353
701.503	31052.941
701.631	30979.922
701.759	30982.490
701.888	31056.235
702.016	31116.137
702.144	30960.784
702.272	31030.745
702.400	30965.333
702.528	31094.431
702.656	31125.020
702.784	30983.255
702.913	30973.588
703.041	30922.882
703.169	30970.608
703.297	30827.902
703.425	30833.961
703.553	30801.765
703.681	30698.824
703.809	30749.314
703.938	30547.471
704.066	30717.176
704.194	30550.647
704.322	30558.549
704.450	30473.608
704.578	30563.725
704.706	30646.039
704.834	30534.588
704.963	30501.529
705.091	30403.686
705.219	30421.588
705.347	30326.020
705.475	30374.471
705.603	30223.020
705.731	30293.686
705.859	30238.471
705.988	30167.157
706.116	30185.608
706.244	30098.902
706.372	30214.216
706.500	30144.667
706.628	30146.529
706.756	30191.627
706.884	29964.647
707.013	30029.412
707.141	29863.667
707.269	29941.902
707.397	29779.627
707.525	29689.902
707.653	29732.843
707.781	29666.078
707.909	29589.784
708.038	29607.922
708.166	29500.549
708.294	29475.137
708.422	29421.529
708.550	29434.882
708.678	29333.843
708.806	29423.922
708.934	29190.549
709.063	29319.431
709.191	29170.510
709.319	29227.863
709.447	29230.804
709.575	29218.451
709.703	29179.843
709.831	29382.647
709.959	29362.706
710.088	29462.000
710.216	29521.412
710.344	29488.020
710.472	29474.353
710.600	29656.039
710.728	29643.922
710.856	29688.765
710.984	29729.196
711.113	29734.902
711.241	29748.157
711.369	29789.275
711.497	29777.804
711.625	29783.275
711.753	29791.216
711.881	29790.902
712.009	30001.667
712.138	29791.314
712.266	29701.824
712.394	29796.686
712.522	29747.353
712.650	29777.902
712.778	29781.725
712.906	29826.549
713.034	29771.588
713.163	29724.490
713.291	29669.902
713.419	29708.412
713.547	29650.784
713.675	29654.824
713.803	29652.941
713.931	29697.157
714.059	29695.882
714.188	29699.196
714.316	29691.196
714.444	29683.078
714.572	29738.235
714.700	29629.314
714.828	29604.667
714.956	29628.647
715.084	29578.471
715.213	29587.804
715.341	29558.588
715.469	29540.765
715.597	29606.804
715.725	29493.451
715.853	29561.706
715.981	29490.412
716.109	29666.745
716.238	29592.059
716.366	29557.549
716.494	29647.392
716.622	29525.529
716.750	29609.314
716.878	29640.549
717.006	29602.078
717.134	29506.824
717.263	29537.098
717.391	29528.667
717.519	29439.275
717.647	29538.353
717.775	29336.706
717.903	29253.392
718.031	29172.000
718.159	29225.627
718.288	29143.490
718.416	29179.667
718.544	29113.471
718.672	29039.431
718.800	28910.412
718.928	28955.392
719.056	28903.608
719.184	28858.431
719.313	28806.412
719.441	28776.039
719.569	28733.882
719.697	28744.961
719.825	28709.647
719.953	28721.745
720.081	28588.471
720.209	28626.922
720.338	28480.745
720.466	28501.000
720.594	28431.235
720.722	28462.039
720.850	28357.941
720.978	28290.608
721.106	28264.490
721.234	28236.275
721.363	28188.745
721.491	28126.412
721.619	28101.431
721.747	28055.451
721.875	28083.608
722.003	27916.529
722.131	27877.941
722.259	27948.961
722.388	28024.137
722.516	27870.725
722.644	27811.941
722.772	27691.941
722.900	27652.157
723.028	27695.569
723.156	27605.922
723.284	27565.725
723.413	27536.980
723.541	27465.588
723.669	27498.569
723.797	27438.333
723.925	27359.843
724.053	27382.549
724.181	27349.451
724.309	27327.588
724.438	27276.510
724.566	27322.157
724.694	27162.000
724.822	27251.745
724.950	27294.784
725.078	27180.353
725.206	27145.686
725.334	27084.490
725.463	27078.431
725.591	27089.608
725.719	27188.059
725.847	26908.176
725.975	26973.941
726.103	26937.686
726.231	26943.333
726.359	26915.471
726.488	27066.980
726.616	26857.118
726.744	26862.157
726.872	26911.059
727.000	26918.314
727.128	26888.902
727.256	26884.824
727.384	26878.961
727.513	26849.020
727.641	26786.137
727.769	26838.353
727.897	26750.647
728.025	26753.039
728.153	26712.824
728.281	26730.588
728.409	26714.353
728.538	26714.882
728.666	26640.196
728.794	26646.745
728.922	26692.314
729.050	26670.216
729.178	26679.824
729.306	26720.745
729.434	26745.373
729.563	26741.745
729.691	26700.902
729.819	26681.765
729.947	26779.020
730.075	26737.373
730.203	26664.922
730.331	26633.471
730.459	26676.549
730.588	26652.980
730.716	26611.353
730.844	26627.059
730.972	26656.549
731.100	26596.020
731.228	26671.216
731.356	26669.137
731.484	26624.059
731.613	26710.176
731.741	26616.451
731.869	26688.804
731.997	26682.608
732.125	26792.647
732.253	26759.059
732.381	26724.510
732.509	26782.157
732.638	26825.196
732.766	26809.255
732.894	26906.980
733.022	26887.804
733.150	26847.490
733.278	26895.294
733.406	26883.471
733.534	26886.039
733.663	26953.804
733.791	26878.843
733.919	26895.902
734.047	26885.059
734.175	26857.745
734.303	26845.118
734.431	26897.137
734.559	26904.627
734.688	26866.510
734.816	26826.843
734.944	26900.667
735.072	26921.725
735.200	26914.824
735.328	26918.275
735.456	26966.569
735.584	26971.843
735.713	26966.039
735.841	26914.118
735.969	27136.627
736.097	26914.353
736.225	26928.196
736.353	26916.569
736.481	26900.451
736.609	26862.961
736.738	26799.412
736.866	26731.333
736.994	26709.373
737.122	26789.843
737.250	26794.980
737.378	26692.294
737.506	26591.627
737.634	26634.627
737.763	26593.431
737.891	26713.569
738.019	26536.922
738.147	26682.157
738.275	26512.078
738.403	26550.275
738.531	26428.627
738.659	26416.255
738.788	26424.412
738.916	26387.392
739.044	26324.922
739.172	26310.078
739.300	26233.510
739.428	26240.059
739.556	26064.863
739.684	26007.725
739.813	26151.824
739.941	26001.843
740.069	25921.588
740.197	25936.569
740.325	25911.686
740.453	25964.451
740.581	25854.373
740.709	25766.510
740.838	25655.627
740.966	25634.529
741.094	25709.980
741.222	25536.863
741.350	25636.157
741.478	25522.000
741.606	25463.353
741.734	25464.451
741.863	25489.843
741.991	25382.725
742.119	25440.725
742.247	25513.667
742.375	25386.098
742.503	25338.922
742.631	25333.725
742.759	25366.137
742.888	25385.157
743.016	25291.373
743.144	25315.882
743.272	25287.843
743.400	25413.667
743.528	25295.118
743.656	25338.784
743.784	25577.843
743.913	25276.490
744.041	25262.412
744.169	25251.314
744.297	25401.059
744.425	25190.804
744.553	25166.745
744.681	25272.471
744.809	25177.569
744.938	25137.804
745.066	25104.902
745.194	25129.020
745.322	25085.765
745.450	25000.784
745.578	24993.824
745.706	24917.294
745.834	24880.843
745.963	24912.961
746.091	24957.588
746.219	24899.706
746.347	24910.882
746.475	24853.686
746.603	24868.608
746.731	24956.824
746.859	24926.098
746.988	24998.451
747.116	25041.412
747.244	24970.157
747.372	25046.706
747.500	25096.510
747.628	25176.392
747.756	25102.706
747.884	25236.627
748.013	25319.667
748.141	25219.059
748.269	25228.490
748.397	25240.216
748.525	25245.667
748.653	25279.235
748.781	25352.784
748.909	25343.275
749.038	25433.294
749.166	25410.039
749.294	25486.078
749.422	25506.314
749.550	25435.922
749.678	25451.157
749.806	25478.627
749.934	25586.804
750.063	25486.490
750.191	25638.078
750.319	25511.373
750.447	25578.647
750.575	25606.824
750.703	25509.627
750.831	25539.647
750.959	25657.000
751.088	25522.275
751.216	25556.490
751.344	25511.882
751.472	25539.137
751.600	25496.588
751.728	25516.608
751.856	25451.882
751.984	25381.451
752.113	25450.216
752.241	25391.255
752.369	25411.431
752.497	25587.824
752.625	25381.431
752.753	25341.804
752.881	25368.471
753.009	25371.941
753.138	25341.118
753.266	25312.980
753.394	25226.118
753.522	25287.529
753.650	25225.098
753.778	25282.902
753.906	25225.431
754.034	25240.745
754.163	25156.549
754.291	25385.824
754.419	25178.569
754.547	25182.824
754.675	25207.216
754.803	25167.157
754.931	25148.725
755.059	25261.216
755.188	25242.039
755.316	25181.765
755.444	25243.667
755.572	25209.647
755.700	25217.294
755.828	25188.275
755.956	25238.020
756.084	25215.373
756.213	25213.431
756.341	25166.529
756.469	25220.078
756.597	25204.765
756.725	25184.412
756.853	25240.922
756.981	25273.216
757.109	25280.196
757.238	25245.882
757.366	25271.765
757.494	25217.902
757.622	25256.549
757.750	25306.000
757.878	25346.490
758.006	25347.647
758.134	25287.157
758.263	25360.706
758.391	25389.275
758.519	25360.784
758.647	25505.157
758.775	25405.627
758.903	25369.745
759.031	25465.882
759.159	25541.961
759.288	25651.000
759.416	25416.196
759.544	25575.196
759.672	25537.314
759.800	25611.804
759.928	25655.980
760.056	25691.549
760.184	25629.333
760.313	25704.922
760.441	25708.529
760.569	25712.471
760.697	25762.922
760.825	25858.431
760.953	25846.725
761.081	25823.667
761.209	25921.235
761.338	25805.725
761.466	25881.745
761.594	26018.784
761.722	26015.745
761.850	25869.353
761.978	25840.961
762.106	25923.098
762.234	25854.275
762.363	25868.471
762.491	25837.686
762.619	25844.235
762.747	25907.627
762.875	25831.020
763.003	25864.922
763.131	25853.451
763.259	25896.294
763.388	25901.608
763.516	26025.706
763.644	25914.490
763.772	25995.392
763.900	26019.980
764.028	25933.647
764.156	25963.902
764.284	25965.490
764.413	25915.843
764.541	25992.804
764.669	25980.804
764.797	25983.000
764.925	25958.843
765.053	25839.078
765.181	25865.725
765.309	25946.941
765.438	25835.784
765.566	26014.490
765.694	25919.000
765.822	26144.314
765.950	25969.647
766.078	25931.314
766.206	25893.588
766.334	25913.804
766.463	25883.294
766.591	25861.961
766.719	25948.176
766.847	25866.098
766.975	25918.137
767.103	25807.529
767.231	25812.745
767.359	25837.941
767.488	25814.608
767.616	25862.804
767.744	25898.627
767.872	25855.667
768.000	25839.569
768.128	25840.588
768.256	25857.314
768.384	25784.686
768.513	25782.745
768.641	25721.627
768.769	25856.882
768.897	25816.941
769.025	25872.843
769.153	25715.353
769.281	25767.235
769.409	25695.039
769.538	25708.431
769.666	25776.294
769.794	25725.961
769.922	25834.725
770.050	25775.627
770.178	25767.020
770.306	25752.902
770.434	25626.059
770.563	25707.510
770.691	25693.078
770.819	25690.627
770.947	25677.137
771.075	25620.569
771.203	25588.824
771.331	25709.529
771.459	25555.392
771.588	25490.725
771.716	25472.706
771.844	25540.765
771.972	25492.431
772.100	25511.686
772.228	25525.667
772.356	25501.216
772.484	25382.039
772.613	25441.843
772.741	25414.647
772.869	25465.882
772.997	25345.529
773.125	25444.510
773.253	25401.353
773.381	25322.941
773.509	25422.941
773.638	25322.588
773.766	25236.000
773.894	25208.314
774.022	25243.804
774.150	25148.824
774.278	25154.294
774.406	25087.000
774.534	25181.000
774.663	25034.078
774.791	24988.039
774.919	24969.333
775.047	24905.961
775.175	24937.431
775.303	24987.667
775.431	24821.490
775.559	24896.431
775.688	24843.882
775.816	24954.922
775.944	24820.412
776.072	24882.392
776.200	24814.843
776.328	24729.529
776.456	24709.824
776.584	24738.980
776.713	24758.882
776.841	24636.412
776.969	24683.118
777.097	24697.333
777.225	24660.294
777.353	24619.569
777.481	24612.353
777.609	24614.706
777.738	24579.882
777.866	24630.843
777.994	24536.588
778.122	24636.745
778.250	24670.294
778.378	24563.529
778.506	24543.588
778.634	24531.588
778.763	24564.157
778.891	24517.804
779.019	24609.608
779.147	24505.275
779.275	24511.353
779.403	24527.510
779.531	24439.000
779.659	24413.745
779.788	24420.275
779.916	24452.137
780.044	24304.078
780.172	24431.176
780.300	24345.294
780.428	24389.804
780.556	24366.000
780.684	24183.235
780.813	24233.098
780.941	24176.706
781.069	24154.039
781.197	24213.000
781.325	24220.510
781.453	24014.706
781.581	24010.216
781.709	24003.333
781.838	23963.196
781.966	23874.706
782.094	23856.510
782.222	23933.000
782.350	23767.843
782.478	23825.157
782.606	23717.059
782.734	23781.686
782.863	23629.863
782.991	23618.314
783.119	23629.490
783.247	23560.902
783.375	23642.882
783.503	23537.196
783.631	23499.843
783.759	23347.824
783.888	23447.098
784.016	23379.843
784.144	23321.059
784.272	23318.510
784.400	23263.765
784.528	23248.196
784.656	23291.373
784.784	23167.000
784.913	23042.176
785.041	23076.804
785.169	22975.294
785.297	22932.588
785.425	22900.961
785.553	22951.392
785.681	22876.059
785.809	22903.392
785.938	22846.608
786.066	22804.725
786.194	22684.294
786.322	22647.098
786.450	22654.196
786.578	22571.863
786.706	22605.529
786.834	22596.196
786.963	22582.725
787.091	22474.686
787.219	22404.961
787.347	22439.804
787.475	22466.922
787.603	22428.608
787.731	22383.294
787.859	22347.333
787.988	22477.667
788.116	22349.275
788.244	22347.882
788.372	22206.275
788.500	22244.608
788.628	22196.824
788.756	22134.000
788.884	22189.412
789.013	22065.451
789.141	22022.588
789.269	22022.804
789.397	21911.667
789.525	21982.157
789.653	21839.294
789.781	21878.941
789.909	21759.000
790.038	21791.471
790.166	21701.294
790.294	21589.314
790.422	21619.118
790.550	21506.235
790.678	21491.510
790.806	21389.706
790.934	21433.255
791.063	21394.627
791.191	21375.804
791.319	21235.098
791.447	21205.569
791.575	21175.039
791.703	21051.020
791.831	21171.529
791.959	21039.686
792.088	21027.745
792.216	21009.549
792.344	20970.412
792.472	20805.020
792.600	20906.843
792.728	20749.353
792.856	20900.235
792.984	20749.373
793.113	20786.000
793.241	20636.804
793.369	20565.961
793.497	20584.961
793.625	20642.373
793.753	20514.725
793.881	20382.196
794.009	20430.510
794.138	20340.549
794.266	20365.471
794.394	20283.216
794.522	20298.588
794.650	20241.667
794.778	20334.431
794.906	20203.451
795.034	20239.608
795.163	20097.529
795.291	20151.020
795.419	20214.059
795.547	20038.471
795.675	20113.706
795.803	20114.784
795.931	19916.980
796.059	19959.647
796.188	19965.843
796.316	19921.549
796.444	19988.039
796.572	19952.000
796.700	19921.588
796.828	19839.118
796.956	19775.608
797.084	19769.824
797.213	19671.235
797.341	19666.216
797.469	19595.608
797.597	19639.196
797.725	19548.961
797.853	19499.098
797.981	19459.922
798.109	19473.078
798.238	19341.804
798.366	19423.627
798.494	19277.824
798.622	19307.314
798.750	19247.706
798.878	19176.745
799.006	19156.137
799.134	19071.843
799.263	19018.471
799.391	18981.333
799.519	18881.745
799.647	18880.608
799.775	18825.922
799.903	18740.588
800.031	18640.882
800.159	18640.647
800.288	18606.255
800.416	18547.745
800.544	18495.039
800.672	18457.294
800.800	18448.020
800.928	18385.294
801.056	18397.451
801.184	18428.686
801.313	18371.569
801.441	18301.784
801.569	18203.333
801.697	18249.902
801.825	18228.706
801.953	18235.431
802.081	18271.980
802.209	18108.510
802.338	18198.765
802.466	18087.549
802.594	18087.176
802.722	18049.843
802.850	17983.196
802.978	18002.431
803.106	17999.098
803.234	18022.314
803.363	17956.922
803.491	17904.784
803.619	17799.275
803.747	17846.275
803.875	17804.275
804.003	17715.353
804.131	17783.588
804.259	17718.431
804.388	17675.451
804.516	17667.098
804.644	17653.098
804.772	17577.490
804.900	17538.961
805.028	17537.118
805.156	17453.941
805.284	17501.196
805.413	17503.725
805.541	17481.098
805.669	17460.314
805.797	17431.314
805.925	17349.235
806.053	17255.529
806.181	17299.412
806.309	17207.294
806.438	17251.216
806.566	17274.039
806.694	17230.078
806.822	17149.569
806.950	17148.353
807.078	17062.510
807.206	17116.059
807.334	17037.961
807.463	17029.490
807.591	16933.843
807.719	16981.510
807.847	16990.510
807.975	16909.078
808.103	16827.667
808.231	16849.627
808.359	16776.157
808.488	16651.765
808.616	16660.078
808.744	16601.118
808.872	16546.608
809.000	16495.392
809.128	16582.980
809.256	16428.843
809.384	16438.863
809.513	16319.216
809.641	16330.118
809.769	16307.059
809.897	16279.686
810.025	16218.059
810.153	16200.059
810.281	16201.451
810.409	16178.255
810.538	16155.745
810.666	16119.196
810.794	16100.098
810.922	16042.529
811.050	16096.569
811.178	16075.667
811.306	16000.569
811.434	16010.098
811.563	15976.235
811.691	15927.824
811.819	15884.235
811.947	15948.588
812.075	15852.020
812.203	15920.490
812.331	15862.569
812.459	15880.804
812.588	15870.275
812.716	15828.333
812.844	15741.078
812.972	15713.000
813.100	15659.608
813.228	15589.941
813.356	15626.451
813.484	15599.431
813.613	15596.294
813.741	15497.471
813.869	14562.882
